Data from FLMS017661__3__16-29-27-614.txt Node

Date: Thu Oct 26 16:29:27 PDT 2023
User: eway
Spectrometer: FLMS01766
Trigger mode: 0
Integration Time (sec): 1.000000E-3
Scans to average: 1000
Electric dark correction enabled: false
Nonlinearity correction enabled: false
Boxcar width: 0
XAxis mode: Wavelengths
Number of Pixels in Spectrum: 2048
>>>>>Begin Spectral Data<<<<<
339.673	2170.21
340.054	2170.21
340.435	2170.21
340.816	2118
341.197	2108.66
341.578	2107.13
341.959	2108.86
342.339	2107.79
342.72	2116.67
343.101	2125.94
343.482	2136.63
343.862	2152.53
344.243	2167.73
344.624	2184.85
345.004	2201.44
345.385	2220.44
345.765	2239.59
346.146	2255.76
346.526	2276.53
346.906	2295.61
347.287	2314.07
347.667	2333.7
348.047	2345.83
348.427	2372.81
348.808	2402.88
349.188	2418.55
349.568	2433.69
349.948	2447.14
350.328	2459.96
350.708	2475.07
351.088	2486.46
351.467	2496.83
351.847	2503.76
352.227	2513.21
352.607	2519.05
352.986	2526.34
353.366	2533.98
353.746	2535.89
354.125	2539.38
354.505	2544.16
354.884	2543.81
355.264	2547.86
355.643	2550.07
356.022	2549.7
356.402	2550.57
356.781	2552.44
357.16	2548.68
357.54	2550.02
357.919	2547.51
358.298	2549.31
358.677	2544.51
359.056	2542.71
359.435	2540.69
359.814	2540.71
360.193	2540.43
360.572	2535.93
360.95	2536.54
361.329	2530
361.708	2528.53
362.087	2526.67
362.465	2527.09
362.844	2526.36
363.222	2524.81
363.601	2523.91
363.979	2522.23
364.358	2523.07
364.736	2522.78
365.115	2526.23
365.493	2523.78
365.871	2522.29
366.249	2523.15
366.628	2523.9
367.006	2522.61
367.384	2523.39
367.762	2524.48
368.14	2528.07
368.518	2527.77
368.896	2527.77
369.274	2529.14
369.652	2532.56
370.03	2533.05
370.407	2536.8
370.785	2537.59
371.163	2537.15
371.54	2539.88
371.918	2543.23
372.296	2544.49
372.673	2548.78
373.051	2554.43
373.428	2556.54
373.805	2560.26
374.183	2562.8
374.56	2566.87
374.937	2572.93
375.315	2579.24
375.692	2586.09
376.069	2594.56
376.446	2602.67
376.823	2609.91
377.2	2619.8
377.577	2631.25
377.954	2639.43
378.331	2654.47
378.708	2666.84
379.085	2684.71
379.461	2701.28
379.838	2723.21
380.215	2740.45
380.592	2767.04
380.968	2789.47
381.345	2827.25
381.721	2858.94
382.098	2900.96
382.474	2945.58
382.851	2991.32
383.227	3042.99
383.603	3106.77
383.979	3174.37
384.356	3252
384.732	3336.71
385.108	3430.47
385.484	3526.02
385.86	3641.03
386.236	3752.87
386.612	3913.86
386.988	4064.6
387.364	4239.18
387.74	4431.29
388.116	4658.15
388.491	4880.77
388.867	5140.81
389.243	5450.23
389.618	5738.65
389.994	6113.27
390.37	6468.06
390.745	6837.26
391.121	7405.63
391.496	7819.59
391.871	8422.48
392.247	8951.89
392.622	9604.22
392.997	10255.52
393.372	11057.82
393.748	11828.58
394.123	12800.58
394.498	13641.73
394.873	14764.62
395.248	15599.25
395.623	17016.68
395.998	17753.07
396.373	19196.25
396.747	20656.27
397.122	22418.6
397.497	23749.15
397.872	25741.22
398.246	26917.78
398.621	29601.6
398.996	30982.43
399.37	32889.43
399.745	35668.85
400.119	37648.17
400.493	39862.94
400.868	42938.68
401.242	44826.54
401.616	47368.94
401.991	50092.95
402.365	51724.12
402.739	54495.91
403.113	56471.71
403.487	57354.67
403.861	59203.65
404.235	59747
404.609	61282.3
404.983	61560.38
405.357	62472.93
405.731	63184.16
406.105	62824.2
406.478	63848.82
406.852	63830.05
407.226	63916.07
407.599	62884
407.973	63279.21
408.346	62558.69
408.72	61700.99
409.093	61656.91
409.467	60705.26
409.84	58688.87
410.213	57481.87
410.587	55950.39
410.96	54511.33
411.333	52604.44
411.706	50542.08
412.079	49335.68
412.452	45116.63
412.825	43115.23
413.198	42042.34
413.571	39721.93
413.944	37668.15
414.317	36286.33
414.69	34777.18
415.062	33217.04
415.435	32470.25
415.808	29589.56
416.18	29066.18
416.553	28596.2
416.925	26935.32
417.298	25726.21
417.67	25002.05
418.043	24390.46
418.415	22799.43
418.788	22009.49
419.16	21516.42
419.532	20424.01
419.904	20122.06
420.276	19308.09
420.648	18079.48
421.021	17659.23
421.393	16444.06
421.765	15952.74
422.136	15112.72
422.508	14384.08
422.88	13556.6
423.252	13447.12
423.624	12614.44
423.996	12016.55
424.367	11413.18
424.739	11123.43
425.11	10445.72
425.482	10082.59
425.854	9701.87
426.225	9267.09
426.596	8779.41
426.968	8661.57
427.339	8272.34
427.71	7947.1
428.082	7765.8
428.453	7577.2
428.824	7231.73
429.195	7103.43
429.566	7083.76
429.937	6815.44
430.308	6637.29
430.679	6429.39
431.05	6327.45
431.421	6185.55
431.792	6062.14
432.163	5898.9
432.533	5839.45
432.904	5702.43
433.275	5658.92
433.645	5425.73
434.016	5319.71
434.386	5205.32
434.757	5148.14
435.127	5015.45
435.498	4922.72
435.868	4765.65
436.238	4647.13
436.609	4541.91
436.979	4441.75
437.349	4355.3
437.719	4285.25
438.089	4165.47
438.459	4104.51
438.829	3977.16
439.199	3908.65
439.569	3848.64
439.939	3814.17
440.309	3702.45
440.679	3676.58
441.048	3550.66
441.418	3548.69
441.788	3493.76
442.157	3456.45
442.527	3386.11
442.896	3361.19
443.266	3320.7
443.635	3274.44
444.005	3248.53
444.374	3197.8
444.743	3172.74
445.113	3130.2
445.482	3130.56
445.851	3093.04
446.22	3063.64
446.589	3041.03
446.958	3009.71
447.327	2999.26
447.696	2974.45
448.065	2953.63
448.434	2938.93
448.803	2909.92
449.172	2899.98
449.541	2887.59
449.909	2862.53
450.278	2854.78
450.647	2840.67
451.015	2819.59
451.384	2811.02
451.752	2805.77
452.121	2783.46
452.489	2773.76
452.857	2762.25
453.226	2752.75
453.594	2743.7
453.962	2735.12
454.33	2723.13
454.699	2713.2
455.067	2701.2
455.435	2701.84
455.803	2690.28
456.171	2688.33
456.539	2681.75
456.906	2678.76
457.274	2671.14
457.642	2667.16
458.01	2661.78
458.378	2651.41
458.745	2654.48
459.113	2646.7
459.48	2643.27
459.848	2637.52
460.215	2637.55
460.583	2632.12
460.95	2631.87
461.318	2627.04
461.685	2623.42
462.052	2624.14
462.419	2620.65
462.787	2616.19
463.154	2615.28
463.521	2612.25
463.888	2607.25
464.255	2603.79
464.622	2605.86
464.989	2599.16
465.356	2599.28
465.722	2596.12
466.089	2596.63
466.456	2594.13
466.823	2587.69
467.189	2590.89
467.556	2587.91
467.923	2585.58
468.289	2584.79
468.656	2583.38
469.022	2581.8
469.388	2580.21
469.755	2581.24
470.121	2580.67
470.487	2577.21
470.854	2576
471.22	2574.17
471.586	2573.01
471.952	2574.22
472.318	2574.01
472.684	2572.63
473.05	2568.26
473.416	2570.52
473.782	2567.95
474.148	2566.35
474.513	2569.16
474.879	2567.74
475.245	2565.88
475.61	2565.54
475.976	2564.98
476.342	2564.87
476.707	2564.85
477.073	2562.48
477.438	2563.54
477.803	2566.53
478.169	2564.97
478.534	2562.95
478.899	2561.79
479.264	2563.52
479.63	2562.27
479.995	2561.09
480.36	2563.33
480.725	2560.93
481.09	2564.23
481.455	2560.97
481.82	2561.07
482.185	2560.38
482.549	2559.99
482.914	2558.88
483.279	2558.88
483.644	2559.79
484.008	2559.21
484.373	2559.61
484.737	2559.59
485.102	2560.8
485.466	2559.17
485.831	2555.18
486.195	2560.09
486.559	2557.6
486.924	2556.82
487.288	2558.77
487.652	2556.37
488.016	2556.83
488.38	2557.46
488.744	2557.73
489.108	2555.84
489.472	2557.36
489.836	2557.28
490.2	2556.82
490.564	2559.07
490.928	2557.19
491.292	2553.22
491.655	2555.35
492.019	2552.69
492.383	2552.54
492.746	2555.67
493.11	2557.51
493.473	2555.9
493.837	2555.94
494.2	2558.71
494.563	2556.11
494.927	2556.11
495.29	2557.74
495.653	2555.05
496.016	2557.1
496.38	2556.8
496.743	2555.61
497.106	2555.57
497.469	2554.96
497.832	2555.06
498.195	2553.11
498.557	2556.12
498.92	2556.47
499.283	2558.32
499.646	2553.96
500.008	2557.5
500.371	2555.42
500.734	2553.48
501.096	2555.92
501.459	2552.59
501.821	2555.58
502.184	2556.91
502.546	2555.85
502.908	2556.21
503.271	2556.21
503.633	2555.13
503.995	2553.71
504.357	2556.46
504.719	2555.75
505.081	2557.87
505.443	2554.63
505.805	2556.67
506.167	2554.98
506.529	2555.95
506.891	2554.82
507.253	2556.13
507.615	2558.94
507.976	2556.48
508.338	2556.27
508.7	2556.8
509.061	2557.7
509.423	2552.58
509.784	2551.69
510.146	2552.06
510.507	2554.63
510.868	2554.93
511.23	2557
511.591	2556.54
511.952	2556.85
512.313	2555.22
512.675	2554.11
513.036	2554.94
513.397	2554.98
513.758	2556.31
514.119	2556.13
514.479	2556.42
514.84	2555.72
515.201	2553.7
515.562	2558.14
515.923	2554.41
516.283	2556.57
516.644	2557.51
517.005	2557.09
517.365	2556.84
517.726	2555.74
518.086	2558.27
518.447	2556.4
518.807	2555.67
519.167	2557.24
519.527	2556.34
519.888	2556.69
520.248	2556.6
520.608	2555.5
520.968	2558.03
521.328	2556.92
521.688	2558.02
522.048	2559.09
522.408	2560.19
522.768	2559.2
523.128	2559.71
523.488	2557.18
523.847	2555.97
524.207	2560.29
524.567	2558.88
524.926	2559.16
525.286	2558.12
525.645	2560.17
526.005	2555.41
526.364	2558.98
526.724	2557.21
527.083	2558.28
527.442	2556.02
527.802	2557.89
528.161	2554.28
528.52	2556.44
528.879	2557.71
529.238	2559.01
529.597	2559.33
529.956	2560.85
530.315	2559.19
530.674	2559.37
531.033	2559.03
531.391	2557.61
531.75	2561.56
532.109	2559.33
532.468	2560.57
532.826	2559.02
533.185	2558.43
533.543	2559.02
533.902	2559.34
534.26	2559.99
534.619	2562.13
534.977	2560.2
535.335	2559.13
535.694	2561.92
536.052	2560.89
536.41	2560.33
536.768	2558.64
537.126	2562.24
537.484	2560.91
537.842	2558.45
538.2	2561.76
538.558	2560.61
538.916	2560.78
539.274	2560.03
539.631	2560.63
539.989	2561.17
540.347	2559.54
540.704	2559.39
541.062	2561.28
541.419	2560.64
541.777	2560.79
542.134	2559.26
542.492	2560.6
542.849	2561.75
543.206	2561.51
543.564	2562.64
543.921	2559.89
544.278	2558.15
544.635	2560.64
544.992	2564.18
545.349	2557.64
545.706	2559.19
546.063	2558.79
546.42	2558.46
546.777	2561.29
547.134	2558.85
547.49	2559.59
547.847	2561.37
548.204	2563.14
548.561	2562.46
548.917	2559.79
549.274	2560.95
549.63	2559.27
549.987	2560.41
550.343	2558.24
550.699	2563
551.056	2561
551.412	2559.23
551.768	2560.53
552.124	2559.91
552.48	2560.77
552.836	2562.42
553.192	2562.03
553.548	2562.02
553.904	2564.37
554.26	2559.89
554.616	2563.87
554.972	2561.03
555.328	2562.39
555.683	2559.95
556.039	2561.83
556.395	2562.09
556.75	2562.5
557.106	2561.06
557.461	2559.29
557.817	2558.74
558.172	2559.48
558.527	2560.41
558.883	2564.11
559.238	2562.48
559.593	2561.5
559.948	2560.28
560.304	2564.34
560.659	2559.41
561.014	2559.33
561.369	2559.66
561.724	2560.26
562.078	2561.18
562.433	2560.43
562.788	2562.22
563.143	2560.64
563.498	2559.8
563.852	2557.86
564.207	2558.31
564.561	2560.34
564.916	2562.88
565.27	2562.32
565.625	2562.04
565.979	2558.76
566.334	2563.64
566.688	2559.54
567.042	2560.93
567.396	2561.49
567.75	2561.04
568.105	2562.93
568.459	2560.91
568.813	2563.12
569.167	2560.75
569.521	2562.87
569.874	2561.17
570.228	2561.01
570.582	2561.94
570.936	2560.73
571.289	2562.79
571.643	2564.38
571.997	2561.07
572.35	2562.52
572.704	2563.12
573.057	2561.05
573.411	2561.62
573.764	2563.66
574.117	2563.52
574.471	2564.29
574.824	2565.6
575.177	2562.17
575.53	2561.2
575.883	2563.4
576.236	2562.34
576.589	2562.47
576.942	2560.13
577.295	2562
577.648	2561.24
578.001	2561.75
578.354	2560.49
578.707	2563.75
579.059	2560.12
579.412	2561.89
579.764	2560.91
580.117	2559.9
580.469	2561.79
580.822	2559.08
581.174	2558.17
581.527	2557.89
581.879	2558.54
582.231	2560.3
582.584	2561.45
582.936	2563.22
583.288	2563.44
583.64	2557.82
583.992	2560.87
584.344	2562.89
584.696	2559.51
585.048	2560.02
585.4	2559.82
585.751	2560.55
586.103	2559.37
586.455	2558.43
586.807	2560.71
587.158	2558.09
587.51	2559.42
587.861	2560.45
588.213	2560.38
588.564	2561.25
588.916	2557.95
589.267	2560.03
589.618	2558.33
589.97	2559.95
590.321	2560.08
590.672	2560.59
591.023	2559.77
591.374	2561.61
591.725	2560.15
592.076	2559.33
592.427	2558.15
592.778	2559.01
593.129	2556.91
593.48	2560.52
593.83	2559.28
594.181	2560.11
594.532	2557.49
594.882	2558.32
595.233	2560.33
595.583	2559.78
595.934	2558.76
596.284	2560.35
596.635	2557.22
596.985	2556.22
597.335	2558.9
597.685	2559.07
598.036	2558.39
598.386	2553.74
598.736	2557.98
599.086	2555.91
599.436	2553.86
599.786	2559.4
600.136	2558.01
600.486	2558.69
600.835	2556.55
601.185	2557.37
601.535	2557.97
601.885	2557.46
602.234	2557.93
602.584	2559.38
602.933	2556.86
603.283	2557.77
603.632	2555.64
603.982	2556.62
604.331	2558.13
604.68	2557.97
605.03	2558.91
605.379	2555.75
605.728	2558.37
606.077	2560.58
606.426	2557.73
606.775	2558.27
607.124	2559.38
607.473	2554.95
607.822	2556.15
608.171	2555.98
608.52	2557.59
608.868	2558.55
609.217	2558.17
609.566	2559.9
609.914	2555.44
610.263	2556.82
610.611	2555.4
610.96	2555.41
611.308	2557.64
611.657	2556.93
612.005	2558.89
612.353	2554.19
612.701	2555.2
613.05	2557.99
613.398	2558.76
613.746	2557.66
614.094	2554.75
614.442	2556.88
614.79	2558.25
615.138	2555.53
615.485	2555.8
615.833	2552.01
616.181	2555.63
616.529	2551.12
616.876	2553.85
617.224	2556.88
617.572	2556.69
617.919	2555.2
618.267	2556.43
618.614	2554.96
618.961	2553.76
619.309	2553.33
619.656	2554.12
620.003	2555.34
620.35	2557.65
620.698	2555.6
621.045	2553.08
621.392	2553.96
621.739	2554.32
622.086	2553.43
622.433	2554.76
622.779	2554.94
623.126	2555.59
623.473	2557.31
623.82	2555.42
624.166	2556.24
624.513	2553.57
624.86	2554.97
625.206	2556.72
625.553	2556.95
625.899	2553.28
626.246	2555.55
626.592	2553.31
626.938	2555.82
627.284	2554.73
627.631	2552.9
627.977	2554.53
628.323	2553.56
628.669	2554.04
629.015	2553.75
629.361	2553.73
629.707	2556.1
630.053	2551.98
630.399	2553.7
630.744	2552.64
631.09	2553.13
631.436	2553.67
631.781	2554.34
632.127	2555.81
632.473	2553.57
632.818	2553.69
633.164	2551.62
633.509	2551.25
633.854	2549.41
634.2	2550.92
634.545	2551.42
634.89	2552.72
635.235	2553.64
635.58	2552.97
635.925	2552.77
636.27	2551.61
636.615	2552.67
636.96	2554.23
637.305	2551.63
637.65	2554.05
637.995	2553.26
638.34	2554.69
638.684	2555.45
639.029	2551.97
639.374	2551.41
639.718	2551.7
640.063	2553.45
640.407	2551.34
640.751	2553.28
641.096	2551.65
641.44	2555.45
641.784	2550.95
642.129	2554.3
642.473	2552.54
642.817	2550.75
643.161	2551.65
643.505	2552.77
643.849	2549.6
644.193	2550.62
644.537	2549.7
644.881	2551.35
645.224	2551.7
645.568	2551.32
645.912	2551.03
646.256	2552.78
646.599	2550.53
646.943	2553.46
647.286	2552.24
647.63	2549.66
647.973	2552.43
648.316	2550.34
648.66	2551.54
649.003	2547.64
649.346	2550.2
649.689	2550.02
650.033	2553.76
650.376	2547.61
650.719	2548.58
651.062	2545.3
651.405	2549.17
651.747	2552.26
652.09	2546.63
652.433	2549.89
652.776	2550.89
653.119	2549.78
653.461	2550.27
653.804	2549
654.146	2548.57
654.489	2549.65
654.831	2547.84
655.174	2547.71
655.516	2550.71
655.858	2549.75
656.201	2549.91
656.543	2550.21
656.885	2548.69
657.227	2551.36
657.569	2549.84
657.911	2550.74
658.253	2548.06
658.595	2549.01
658.937	2547.33
659.279	2548.46
659.621	2548.34
659.962	2548.34
660.304	2548.73
660.646	2550.55
660.987	2545.88
661.329	2548.69
661.67	2548.25
662.012	2546.37
662.353	2549.64
662.695	2546.34
663.036	2548.59
663.377	2548.54
663.718	2548.37
664.06	2546.45
664.401	2548.86
664.742	2549.91
665.083	2549.49
665.424	2549.35
665.765	2548.56
666.106	2548.93
666.446	2547.33
666.787	2548.21
667.128	2550.52
667.469	2544.78
667.809	2543.96
668.15	2543.08
668.49	2543.35
668.831	2547.1
669.171	2548.48
669.512	2549.76
669.852	2547.54
670.192	2548.15
670.533	2546.15
670.873	2547.37
671.213	2545.45
671.553	2548.11
671.893	2548.76
672.233	2547.39
672.573	2547.65
672.913	2546.9
673.253	2548.84
673.593	2547.67
673.933	2546.17
674.272	2545.75
674.612	2547.15
674.952	2548.34
675.291	2547.64
675.631	2547.97
675.97	2547.44
676.31	2546.43
676.649	2544.48
676.988	2546.66
677.328	2546.89
677.667	2547.28
678.006	2546.14
678.345	2546.94
678.684	2546.39
679.023	2545.63
679.362	2546.49
679.701	2548.07
680.04	2546.51
680.379	2547.44
680.718	2546.66
681.057	2545.86
681.395	2545.9
681.734	2548.37
682.073	2547.12
682.411	2545.73
682.75	2546.84
683.088	2543.76
683.427	2545.12
683.765	2543.1
684.103	2548.25
684.442	2545.53
684.78	2544.52
685.118	2541.57
685.456	2543.54
685.794	2547.89
686.132	2544.41
686.47	2545.85
686.808	2545.19
687.146	2545.98
687.484	2546.29
687.822	2544.94
688.159	2545.82
688.497	2545.58
688.835	2546.05
689.172	2544.45
689.51	2549.58
689.847	2543.81
690.185	2545.66
690.522	2546.3
690.86	2542.67
691.197	2544.1
691.534	2545.28
691.871	2544.79
692.209	2545.08
692.546	2546.38
692.883	2544.28
693.22	2543.71
693.557	2545.39
693.894	2546.35
694.23	2542.52
694.567	2547.74
694.904	2546.49
695.241	2545.53
695.577	2543.38
695.914	2544.26
696.251	2545.67
696.587	2544.66
696.924	2542.42
697.26	2545.44
697.596	2544.51
697.933	2543.56
698.269	2544.81
698.605	2543.91
698.942	2543.18
699.278	2543.93
699.614	2544.4
699.95	2541.74
700.286	2542.85
700.622	2543.83
700.958	2543.87
701.293	2540.13
701.629	2540.71
701.965	2541.81
702.301	2542.27
702.636	2543.94
702.972	2542.45
703.308	2542.64
703.643	2545.96
703.978	2545.15
704.314	2542.39
704.649	2543.41
704.985	2545.14
705.32	2545.63
705.655	2542.67
705.99	2541.96
706.325	2542.18
706.66	2543.98
706.995	2542.7
707.33	2543.68
707.665	2541.96
708	2543.9
708.335	2543.45
708.67	2540.55
709.004	2543.54
709.339	2544.94
709.674	2542.1
710.008	2543.97
710.343	2543.55
710.677	2542.1
711.012	2542.69
711.346	2542.51
711.68	2541.71
712.015	2540.86
712.349	2544.07
712.683	2541.14
713.017	2542.11
713.351	2541.68
713.685	2540.67
714.019	2542.29
714.353	2543.92
714.687	2543.69
715.021	2544.16
715.355	2542.8
715.689	2542.52
716.022	2541.6
716.356	2543.45
716.69	2543.12
717.023	2542.03
717.357	2543.93
717.69	2542.27
718.023	2541.67
718.357	2538.41
718.69	2539.43
719.023	2539.04
719.357	2541.79
719.69	2542.13
720.023	2541.63
720.356	2540.21
720.689	2540.21
721.022	2543.46
721.355	2541.95
721.688	2541.88
722.02	2541.91
722.353	2540.03
722.686	2543
723.019	2540.2
723.351	2540.68
723.684	2540.95
724.016	2541.91
724.349	2541.19
724.681	2542.87
725.013	2542.65
725.346	2539.11
725.678	2540.98
726.01	2541.9
726.342	2544.3
726.675	2541.14
727.007	2540.66
727.339	2542.99
727.671	2543.11
728.003	2543.73
728.334	2539.77
728.666	2542.39
728.998	2541.34
729.33	2537.52
729.661	2540.48
729.993	2542.1
730.325	2542.46
730.656	2540.1
730.988	2541.83
731.319	2542.98
731.65	2543.66
731.982	2542.38
732.313	2541.39
732.644	2539.04
732.975	2540.88
733.307	2539.1
733.638	2540.95
733.969	2540.76
734.3	2541.1
734.631	2539.69
734.961	2539.69
735.292	2535.48
735.623	2538.86
735.954	2541.35
736.284	2541.27
736.615	2541.96
736.946	2542.37
737.276	2543.08
737.607	2541.76
737.937	2542.02
738.268	2542.41
738.598	2540.46
738.928	2542.65
739.258	2540.98
739.589	2539.41
739.919	2538.94
740.249	2543.2
740.579	2539.83
740.909	2539.38
741.239	2541.39
741.569	2541.59
741.899	2540.39
742.228	2540.74
742.558	2541.72
742.888	2541.5
743.217	2537.09
743.547	2541.23
743.877	2538.79
744.206	2541.87
744.535	2542.86
744.865	2539.72
745.194	2540.72
745.523	2538.78
745.853	2538.07
746.182	2540.62
746.511	2540
746.84	2538.57
747.169	2542.55
747.498	2539.82
747.827	2538.84
748.156	2539.68
748.485	2540.46
748.814	2539.61
749.142	2541.38
749.471	2541.62
749.8	2541.59
750.128	2541.36
750.457	2540.59
750.785	2539.86
751.114	2535.23
751.442	2539.44
751.771	2537.28
752.099	2538.31
752.427	2539.1
752.755	2540.02
753.083	2539.12
753.412	2538.95
753.74	2538.17
754.068	2540.67
754.396	2543.11
754.723	2539.83
755.051	2540.63
755.379	2541.56
755.707	2537.86
756.035	2539.22
756.362	2538.44
756.69	2539.71
757.017	2539.48
757.345	2539.23
757.672	2540.61
758	2539.09
758.327	2538.89
758.654	2541.43
758.982	2541.5
759.309	2539.52
759.636	2538.4
759.963	2538.62
760.29	2541.71
760.617	2539.24
760.944	2541.4
761.271	2541.32
761.598	2539.97
761.924	2540.78
762.251	2539.42
762.578	2538.77
762.905	2542.2
763.231	2538.18
763.558	2539.47
763.884	2539.52
764.211	2538.63
764.537	2538.71
764.863	2541.77
765.19	2539.11
765.516	2538.89
765.842	2538.87
766.168	2539.09
766.494	2538.98
766.82	2538.4
767.146	2539.71
767.472	2534.07
767.798	2537.48
768.124	2535.41
768.45	2535.35
768.776	2538.37
769.101	2538.26
769.427	2537.36
769.752	2538.12
770.078	2540.71
770.404	2539.93
770.729	2539.01
771.054	2538.01
771.38	2538.88
771.705	2539.54
772.03	2539.71
772.355	2539.13
772.681	2540.19
773.006	2541.04
773.331	2540.02
773.656	2539.72
773.981	2539.06
774.305	2537.88
774.63	2540.65
774.955	2541.79
775.28	2539.58
775.604	2536.46
775.929	2539.09
776.254	2538.54
776.578	2539.26
776.903	2537.38
777.227	2540.36
777.551	2539.24
777.876	2541.91
778.2	2536.65
778.524	2536.5
778.849	2537.48
779.173	2537.22
779.497	2538.1
779.821	2538.26
780.145	2536.72
780.469	2537.64
780.793	2537.39
781.116	2537.11
781.44	2538.77
781.764	2537.1
782.087	2538.49
782.411	2536.48
782.735	2538.62
783.058	2538.37
783.382	2538.69
783.705	2534.88
784.028	2535.36
784.352	2534.28
784.675	2535.56
784.998	2538.26
785.321	2538.48
785.645	2536.84
785.968	2538.97
786.291	2536.85
786.614	2539.31
786.936	2535.16
787.259	2537.9
787.582	2539.81
787.905	2538.15
788.228	2537.45
788.55	2538.72
788.873	2538.22
789.195	2539.27
789.518	2538.03
789.84	2538.04
790.163	2537.1
790.485	2536.96
790.807	2538.71
791.13	2539.79
791.452	2540.14
791.774	2538.38
792.096	2539.69
792.418	2539.15
792.74	2537.78
793.062	2537.7
793.384	2539.07
793.706	2538.87
794.028	2537.94
794.349	2536.99
794.671	2537.97
794.993	2537.14
795.314	2536.87
795.636	2538.09
795.957	2538.18
796.279	2539.91
796.6	2538.61
796.921	2537.37
797.243	2538.26
797.564	2540.11
797.885	2536.88
798.206	2539.19
798.527	2539.93
798.848	2539.93
799.169	2539.57
799.49	2539.58
799.811	2534.48
800.132	2539.36
800.453	2535.79
800.774	2534
801.094	2539.2
801.415	2538.73
801.735	2539.49
802.056	2538.97
802.376	2538.54
802.697	2538.7
803.017	2539.22
803.337	2538.71
803.658	2537.45
803.978	2539.06
804.298	2537.87
804.618	2539.39
804.938	2538.4
805.258	2538.61
805.578	2540.66
805.898	2539.13
806.218	2538.95
806.538	2539.51
806.858	2539.31
807.177	2541.29
807.497	2538.67
807.816	2539.1
808.136	2538.17
808.455	2539.05
808.775	2541.25
809.094	2541.24
809.414	2541.03
809.733	2538.31
810.052	2541.89
810.371	2537.9
810.691	2539.16
811.01	2541.38
811.329	2540.26
811.648	2540.38
811.967	2539.47
812.285	2539.95
812.604	2540.53
812.923	2538.87
813.242	2538.68
813.56	2540.03
813.879	2541.02
814.198	2539.66
814.516	2543.29
814.835	2540.69
815.153	2539.41
815.471	2541.64
815.79	2533.28
816.108	2539.75
816.426	2535.86
816.744	2536.2
817.062	2538.37
817.381	2539.08
817.699	2538.81
818.016	2538.29
818.334	2538.71
818.652	2537.65
818.97	2537.77
819.288	2537.51
819.605	2540.56
819.923	2538.13
820.241	2538.88
820.558	2538.21
820.876	2538.81
821.193	2537.25
821.511	2540.56
821.828	2540.02
822.145	2540.85
822.462	2539.35
822.78	2537.62
823.097	2538.77
823.414	2541.01
823.731	2537.47
824.048	2535.98
824.365	2537.94
824.682	2538
824.998	2538.84
825.315	2538.52
825.632	2537.83
825.949	2538.36
826.265	2537.76
826.582	2537.54
826.898	2537.12
827.215	2537.59
827.531	2538.76
827.847	2539.18
828.164	2536.23
828.48	2537.87
828.796	2537.16
829.112	2539.01
829.428	2538.17
829.744	2536.16
830.06	2536.44
830.376	2540.27
830.692	2537.29
831.008	2536.95
831.324	2539.53
831.64	2534.87
831.955	2537.31
832.271	2536.24
832.587	2534.95
832.902	2536.02
833.218	2538.24
833.533	2537.6
833.848	2537.2
834.164	2535.72
834.479	2534.68
834.794	2535.25
835.109	2539.1
835.424	2537.15
835.739	2538.52
836.054	2535.53
836.369	2536.36
836.684	2534.47
836.999	2537.71
837.314	2537.07
837.629	2535.69
837.943	2537.05
838.258	2536.46
838.573	2538.17
838.887	2536.81
839.202	2538.98
839.516	2537.49
839.831	2539.67
840.145	2537.14
840.459	2536.5
840.773	2536.5
841.088	2537.33
841.402	2536.4
841.716	2536.62
842.03	2536.9
842.344	2536.27
842.658	2535.79
842.972	2536.29
843.285	2535.05
843.599	2536.08
843.913	2537.4
844.226	2536.05
844.54	2534.88
844.854	2536.43
845.167	2535.82
845.481	2536.78
845.794	2536.67
846.107	2536.05
846.421	2535.71
846.734	2534.77
847.047	2537.45
847.36	2532.29
847.673	2535.74
847.986	2533.58
848.299	2531.01
848.612	2534.64
848.925	2534.5
849.238	2535.42
849.551	2537.41
849.863	2536.98
850.176	2536.85
850.489	2537.26
850.801	2539
851.114	2533.79
851.426	2536.48
851.739	2536.13
852.051	2536.16
852.363	2537.69
852.675	2536.48
852.988	2538.07
853.3	2537.45
853.612	2535.25
853.924	2536.77
854.236	2534.53
854.548	2536.58
854.86	2536.58
855.172	2535.36
855.483	2536.17
855.795	2536.94
856.107	2537.63
856.418	2538.33
856.73	2537.56
857.041	2534.04
857.353	2535.38
857.664	2532.95
857.976	2533.69
858.287	2537.62
858.598	2536.38
858.909	2536.31
859.221	2536.6
859.532	2535.75
859.843	2536.36
860.154	2535.32
860.465	2537.54
860.775	2535.32
861.086	2533.75
861.397	2536.34
861.708	2537.24
862.018	2535.08
862.329	2535.75
862.64	2537.51
862.95	2532.9
863.261	2533.08
863.571	2532.19
863.881	2533.58
864.192	2535.04
864.502	2535.67
864.812	2537.98
865.122	2536.53
865.432	2533.3
865.742	2534.65
866.052	2535.89
866.362	2534.79
866.672	2534.61
866.982	2535.41
867.292	2536.51
867.602	2536.58
867.911	2534.95
868.221	2536.32
868.53	2535.88
868.84	2535.95
869.149	2536.17
869.459	2535.74
869.768	2535.07
870.078	2537.37
870.387	2539.51
870.696	2536.32
871.005	2534.54
871.314	2538.05
871.623	2535.02
871.932	2533.51
872.241	2536.47
872.55	2537.36
872.859	2533.36
873.168	2538.09
873.476	2534.42
873.785	2535.95
874.094	2534.91
874.402	2536.47
874.711	2533.87
875.019	2533.77
875.328	2535.35
875.636	2536.47
875.944	2534.88
876.253	2536.37
876.561	2535.99
876.869	2534.95
877.177	2534.98
877.485	2534.31
877.793	2533.09
878.101	2538.53
878.409	2531.12
878.717	2530.74
879.024	2532.88
879.332	2533.17
879.64	2538.1
879.947	2536.45
880.255	2534.42
880.563	2534.33
880.87	2534.8
881.177	2535.54
881.485	2534.3
881.792	2535.84
882.099	2535.48
882.406	2534.5
882.714	2535.29
883.021	2536.99
883.328	2534.34
883.635	2534.91
883.942	2532.97
884.249	2534.2
884.555	2533.86
884.862	2536.75
885.169	2535.35
885.475	2535.08
885.782	2536.04
886.089	2536.09
886.395	2533.49
886.702	2533.86
887.008	2535.97
887.314	2534.52
887.621	2531.89
887.927	2533.94
888.233	2533.02
888.539	2532.36
888.845	2534.86
889.151	2533.89
889.457	2536.24
889.763	2535.86
890.069	2536.91
890.375	2533.7
890.681	2534.34
890.986	2534.36
891.292	2534.69
891.598	2533.39
891.903	2531.03
892.209	2536.63
892.514	2532.82
892.819	2534.6
893.125	2536.43
893.43	2535.03
893.735	2532.65
894.04	2531.36
894.346	2530.01
894.651	2533.06
894.956	2536.09
895.261	2535.36
895.565	2534.78
895.87	2535.19
896.175	2532.76
896.48	2535.58
896.785	2536.49
897.089	2534.01
897.394	2534.63
897.698	2534.59
898.003	2534.96
898.307	2535.58
898.612	2534.02
898.916	2533.69
899.22	2535.04
899.524	2535.61
899.829	2534.37
900.133	2533.23
900.437	2534.95
900.741	2535.65
901.045	2536.4
901.348	2538.25
901.652	2534.46
901.956	2534.19
902.26	2532.03
902.564	2536.77
902.867	2535.52
903.171	2532.5
903.474	2536.32
903.778	2535.6
904.081	2534.39
904.384	2535.01
904.688	2534.91
904.991	2532.99
905.294	2534.37
905.597	2533.83
905.9	2535.65
906.203	2534.31
906.506	2534.07
906.809	2533.31
907.112	2532.18
907.415	2534.36
907.718	2535.62
908.021	2532.97
908.323	2532.92
908.626	2532.84
908.928	2534.52
909.231	2534.24
909.533	2530.45
909.836	2531.5
910.138	2534.14
910.44	2533.58
910.742	2535.08
911.045	2532.72
911.347	2534.32
911.649	2534.51
911.951	2532.09
912.253	2533.52
912.555	2536.27
912.857	2536.34
913.158	2533.02
913.46	2533.93
913.762	2533.45
914.063	2537.2
914.365	2533.47
914.667	2534.59
914.968	2533.31
915.269	2533.77
915.571	2534.33
915.872	2534.27
916.173	2535.05
916.475	2534.52
916.776	2533.47
917.077	2533.84
917.378	2536.24
917.679	2534.25
917.98	2534.73
918.281	2533.17
918.582	2534.17
918.882	2535.86
919.183	2534.65
919.484	2533.99
919.784	2532.94
920.085	2533.8
920.385	2535.53
920.686	2532.12
920.986	2535.16
921.287	2532.85
921.587	2533.59
921.887	2533.92
922.187	2534.28
922.487	2531.38
922.787	2532.45
923.087	2532.22
923.387	2533.09
923.687	2534.53
923.987	2530.55
924.287	2531.62
924.587	2528.44
924.886	2530.44
925.186	2532.53
925.486	2531.96
925.785	2534.02
926.085	2531.44
926.384	2532.49
926.683	2533.32
926.983	2534.24
927.282	2533.15
927.581	2534.61
927.88	2533.27
928.18	2531.7
928.479	2532.83
928.778	2533.6
929.076	2533.7
929.375	2534.97
929.674	2534
929.973	2531.59
930.272	2532.27
930.57	2535.26
930.869	2535.23
931.168	2534.85
931.466	2533.61
931.764	2534.64
932.063	2533.94
932.361	2532.06
932.66	2533.51
932.958	2533.49
933.256	2532.81
933.554	2535.04
933.852	2533.92
934.15	2534.34
934.448	2534.2
934.746	2532.08
935.044	2533.06
935.342	2534.82
935.639	2533.94
935.937	2533.32
936.235	2533.69
936.532	2531.34
936.83	2532.39
937.127	2531.89
937.425	2534.16
937.722	2535.39
938.019	2532.88
938.317	2533.53
938.614	2534.98
938.911	2531.35
939.208	2534.37
939.505	2531.58
939.802	2529.19
940.099	2530.45
940.396	2533.7
940.693	2532.72
940.989	2530.37
941.286	2532.9
941.583	2532.13
941.879	2532.16
942.176	2530.66
942.472	2531.28
942.769	2532.74
943.065	2533
943.362	2531.68
943.658	2530.35
943.954	2531.95
944.25	2533.87
944.546	2533.15
944.842	2532.56
945.138	2534.04
945.434	2532.06
945.73	2533.5
946.026	2532.29
946.322	2530.41
946.618	2531.46
946.913	2534.04
947.209	2533.67
947.504	2533.4
947.8	2532.82
948.095	2534.35
948.391	2534.53
948.686	2533.71
948.981	2533.67
949.277	2533.63
949.572	2531.97
949.867	2533.5
950.162	2532.06
950.457	2532.01
950.752	2532.55
951.047	2532.35
951.342	2534.5
951.637	2531.55
951.931	2533.1
952.226	2532.78
952.521	2532.12
952.815	2533.48
953.11	2533.93
953.404	2534.88
953.699	2528.56
953.993	2529.79
954.287	2526.4
954.582	2530.01
954.876	2532.84
955.17	2532.8
955.464	2531.08
955.758	2532.52
956.052	2532.47
956.346	2531.33
956.64	2534.44
956.934	2531.77
957.227	2534.49
957.521	2533.34
957.815	2531.34
958.108	2531.5
958.402	2532.03
958.695	2531.91
958.989	2533.19
959.282	2533.15
959.575	2533.46
959.869	2531.73
960.162	2531.9
960.455	2535.32
960.748	2534.92
961.041	2531.59
961.334	2531.1
961.627	2533.13
961.92	2532.39
962.213	2531.76
962.505	2532.74
962.798	2532.52
963.091	2534.76
963.383	2533.11
963.676	2533.33
963.968	2530.45
964.261	2532.9
964.553	2532.96
964.846	2532.19
965.138	2531.55
965.43	2530.06
965.722	2531.81
966.014	2532.66
966.306	2535.27
966.598	2531.51
966.89	2530.03
967.182	2533.26
967.474	2529.83
967.766	2531.66
968.058	2533.48
968.349	2527.93
968.641	2528.72
968.932	2530.26
969.224	2528.52
969.515	2530.9
969.807	2530.62
970.098	2532.09
970.389	2531.49
970.681	2530.2
970.972	2533.73
971.263	2530.22
971.554	2532.72
971.845	2531.43
972.136	2532.43
972.427	2531.66
972.718	2535.73
973.008	2533.41
973.299	2535.14
973.59	2530.25
973.88	2532.45
974.171	2531.23
974.461	2529.23
974.752	2531.21
975.042	2531.58
975.333	2533.85
975.623	2531.76
975.913	2530.51
976.203	2533.87
976.493	2531.88
976.783	2533.44
977.073	2533.21
977.363	2533.75
977.653	2532.41
977.943	2533.94
978.233	2533.11
978.523	2532.04
978.812	2530.78
979.102	2532.34
979.391	2533.31
979.681	2532.89
979.97	2532.22
980.26	2531.36
980.549	2531.64
980.838	2531.86
981.128	2531.7
981.417	2530.63
981.706	2532.33
981.995	2534.92
982.284	2532.81
982.573	2531.74
982.862	2528.15
983.151	2531.1
983.44	2527.96
983.728	2531.03
984.017	2530.34
984.306	2534.56
984.594	2533.48
984.883	2533.19
985.171	2530.43
985.459	2531.18
985.748	2532.61
986.036	2531.66
986.324	2532.16
986.612	2531.4
986.901	2531.1
987.189	2530.62
987.477	2530.92
987.765	2534.6
988.052	2530.99
988.34	2531.94
988.628	2533.07
988.916	2528.69
989.204	2531.81
989.491	2533.51
989.779	2532.96
990.066	2531.03
990.354	2531.94
990.641	2529.88
990.928	2530.31
991.216	2531
991.503	2533.03
991.79	2533.33
992.077	2535.6
992.364	2531.28
992.651	2529.02
992.938	2529.76
993.225	2530.73
993.512	2531.19
993.799	2532.15
994.085	2531.73
994.372	2533.34
994.659	2533.39
994.945	2531.15
995.232	2531.47
995.518	2532.65
995.805	2530.95
996.091	2530.74
996.377	2531.1
996.663	2531.12
996.95	2535.52
997.236	2529.19
997.522	2531.4
997.808	2527.54
998.094	2528.43
998.379	2530.58
998.665	2532.18
998.951	2533.2
999.237	2532.46
999.522	2532.27
999.808	2530.52
1000.094	2531.56
1000.379	2531.84
1000.665	2531.75
1000.95	2531.21
1001.235	2532.28
1001.521	2530.93
1001.806	2532.38
1002.091	2530.33
1002.376	2532.3
1002.661	2529.81
1002.946	2531.95
1003.231	2532.51
1003.516	2531.13
1003.801	2532.02
1004.085	2532.73
1004.37	2529.68
1004.655	2533.74
1004.939	2531.72
1005.224	2530.89
1005.508	2534.16
1005.793	2530.78
1006.077	2531.64
1006.361	2533.09
1006.646	2532.71
1006.93	2533.41
1007.214	2529.65
1007.498	2530.68
1007.782	2531.87
1008.066	2528.95
1008.35	2531.72
1008.634	2529.5
1008.918	2532.12
1009.202	2530.88
1009.485	2531.01
1009.769	2533.27
1010.052	2529.24
1010.336	2530.54
1010.619	2532.81
1010.903	2531.89
1011.186	2530.98
1011.47	2529.45
1011.753	2528.61
1012.036	2526.92
1012.319	2528.67
1012.602	2532.27
1012.885	2531.79
1013.168	2530.53
1013.451	2530.56
1013.734	2532.51
1014.017	2533.04
1014.299	2531.28
1014.582	2529.57
1014.865	2530.39
1015.147	2532.09
1015.43	2530.96
1015.712	2533.5
1015.995	2532.75
1016.277	2532.2
1016.559	2531.52
1016.842	2529.76
1017.124	2531.06
1017.406	2532.41
1017.688	2532.4
1017.97	2533.15
1018.252	2530.85
1018.534	2532.26
1018.816	2530.68
1019.097	2531.95
1019.379	2530.45
1019.661	2530.96
1019.942	2533.4
1020.224	2531.29
1020.505	2531.5
1020.787	2529.42
1021.068	2528.73
1021.349	2529.95
1021.631	2530.79
1021.912	2531.43
1022.193	2532.42
1022.474	2532.42
1022.755	2532.42
