Data from FLMS017661__0__16-22-38-741.txt Node

Date: Thu Oct 26 16:22:38 PDT 2023
User: eway
Spectrometer: FLMS01766
Trigger mode: 0
Integration Time (sec): 1.000000E-3
Scans to average: 1000
Electric dark correction enabled: false
Nonlinearity correction enabled: false
Boxcar width: 0
XAxis mode: Wavelengths
Number of Pixels in Spectrum: 2048
>>>>>Begin Spectral Data<<<<<
339.673	2192.13
340.054	2192.13
340.435	2192.13
340.816	2136.47
341.197	2127.99
341.578	2127.67
341.959	2127.7
342.339	2126.78
342.72	2135.28
343.101	2143.04
343.482	2155.5
343.862	2171.23
344.243	2188.12
344.624	2204.31
345.004	2220.4
345.385	2237.83
345.765	2259.29
346.146	2276.48
346.526	2297.48
346.906	2315.06
347.287	2336.36
347.667	2354.22
348.047	2370.19
348.427	2388.58
348.808	2403.53
349.188	2419.61
349.568	2432.23
349.948	2447.96
350.328	2461.11
350.708	2471.86
351.088	2482.58
351.467	2494.6
351.847	2499.01
352.227	2509.8
352.607	2514.38
352.986	2523.75
353.366	2527.43
353.746	2536.19
354.125	2539.09
354.505	2541.83
354.884	2542.45
355.264	2541.22
355.643	2545.08
356.022	2546.92
356.402	2544.26
356.781	2543.93
357.16	2542.77
357.54	2542.37
357.919	2542.21
358.298	2539.66
358.677	2537.37
359.056	2538.05
359.435	2533.2
359.814	2532.85
360.193	2529.72
360.572	2527.56
360.95	2525.49
361.329	2518.05
361.708	2519.54
362.087	2516.12
362.465	2516.09
362.844	2514.13
363.222	2514.33
363.601	2514.75
363.979	2510.8
364.358	2510.36
364.736	2506.85
365.115	2505.9
365.493	2506.63
365.871	2506.26
366.249	2504.78
366.628	2503.01
367.006	2504.6
367.384	2504.26
367.762	2502.7
368.14	2502.97
368.518	2502.75
368.896	2501.61
369.274	2500.91
369.652	2504.44
370.03	2501.6
370.407	2503.97
370.785	2504.24
371.163	2503.63
371.54	2503.62
371.918	2506.38
372.296	2503.81
372.673	2507.42
373.051	2506.19
373.428	2508.28
373.805	2504.29
374.183	2507.78
374.56	2509.01
374.937	2508.32
375.315	2509.07
375.692	2509.81
376.069	2512.64
376.446	2508.49
376.823	2512.47
377.2	2511.17
377.577	2511.83
377.954	2512.86
378.331	2515.29
378.708	2513.64
379.085	2514.7
379.461	2513.56
379.838	2515.95
380.215	2514.78
380.592	2514.02
380.968	2510.92
381.345	2513
381.721	2517.4
382.098	2515.22
382.474	2517.56
382.851	2519.39
383.227	2518.05
383.603	2519.97
383.979	2518.32
384.356	2518.61
384.732	2520.38
385.108	2521.1
385.484	2518.98
385.86	2521.4
386.236	2518.75
386.612	2519.94
386.988	2518.91
387.364	2520.3
387.74	2520.26
388.116	2520.05
388.491	2523.15
388.867	2521.51
389.243	2524.69
389.618	2522.59
389.994	2521.89
390.37	2521.21
390.745	2521.55
391.121	2519.29
391.496	2522.71
391.871	2521.93
392.247	2523.72
392.622	2520.61
392.997	2520.61
393.372	2523.24
393.748	2524.16
394.123	2524.03
394.498	2524.1
394.873	2524.67
395.248	2521.6
395.623	2526.67
395.998	2526.61
396.373	2525.57
396.747	2525
397.122	2525.03
397.497	2526.56
397.872	2523.01
398.246	2524.58
398.621	2527.94
398.996	2520.98
399.37	2524.72
399.745	2521.49
400.119	2525.87
400.493	2526.5
400.868	2525.77
401.242	2530.42
401.616	2527.98
401.991	2527.64
402.365	2527.68
402.739	2527.47
403.113	2529.76
403.487	2530.15
403.861	2529.67
404.235	2527.19
404.609	2528.79
404.983	2528.72
405.357	2528.66
405.731	2529.18
406.105	2528.15
406.478	2530.14
406.852	2532.05
407.226	2528.33
407.599	2530.94
407.973	2528.44
408.346	2531.39
408.72	2530.69
409.093	2531.12
409.467	2531.72
409.84	2532.78
410.213	2534.32
410.587	2533.04
410.96	2532.37
411.333	2533.77
411.706	2531.82
412.079	2533.94
412.452	2532.76
412.825	2533.32
413.198	2533.91
413.571	2533.17
413.944	2534.02
414.317	2535.75
414.69	2532.06
415.062	2534.2
415.435	2534.59
415.808	2530.7
416.18	2534.1
416.553	2535.44
416.925	2534.84
417.298	2535.08
417.67	2531.34
418.043	2536.19
418.415	2531.22
418.788	2535.65
419.16	2535.19
419.532	2535.64
419.904	2535.93
420.276	2536.24
420.648	2537.06
421.021	2537.5
421.393	2535.5
421.765	2533.87
422.136	2536.07
422.508	2535.78
422.88	2538.17
423.252	2539.38
423.624	2537.66
423.996	2538.29
424.367	2536.64
424.739	2538.58
425.11	2538.93
425.482	2539.26
425.854	2537.99
426.225	2539.1
426.596	2538.57
426.968	2540.68
427.339	2541.63
427.71	2537.17
428.082	2540.25
428.453	2536.71
428.824	2538.65
429.195	2541.07
429.566	2542.53
429.937	2539.09
430.308	2538.74
430.679	2539.33
431.05	2541.16
431.421	2540.71
431.792	2538.53
432.163	2539.13
432.533	2540.07
432.904	2540.81
433.275	2542.11
433.645	2539.53
434.016	2541.53
434.386	2541.99
434.757	2543.2
435.127	2541.7
435.498	2539.87
435.868	2540.75
436.238	2535.58
436.609	2542.3
436.979	2538.1
437.349	2539.57
437.719	2540.77
438.089	2540.6
438.459	2541.71
438.829	2542.31
439.199	2540.94
439.569	2544.31
439.939	2543.99
440.309	2543.4
440.679	2543.99
441.048	2544.96
441.418	2543.22
441.788	2543.97
442.157	2542.62
442.527	2542.74
442.896	2541.35
443.266	2542.49
443.635	2544.3
444.005	2545.52
444.374	2542.47
444.743	2544.46
445.113	2547.27
445.482	2542.55
445.851	2545.17
446.22	2544.78
446.589	2544.23
446.958	2547.72
447.327	2547.45
447.696	2545.71
448.065	2545.3
448.434	2544.64
448.803	2545.62
449.172	2545.04
449.541	2545.48
449.909	2544.63
450.278	2546.34
450.647	2543.8
451.015	2547.6
451.384	2547.28
451.752	2546.86
452.121	2546.21
452.489	2542.94
452.857	2548.06
453.226	2545.99
453.594	2545.99
453.962	2545.91
454.33	2549.11
454.699	2540.16
455.067	2544.82
455.435	2543.63
455.803	2545.86
456.171	2547.75
456.539	2548.58
456.906	2545.62
457.274	2547.29
457.642	2545.84
458.01	2546.11
458.378	2547.78
458.745	2548.89
459.113	2547.11
459.48	2548.91
459.848	2548.34
460.215	2548.95
460.583	2547.42
460.95	2550.08
461.318	2548.42
461.685	2549.53
462.052	2549.96
462.419	2550.7
462.787	2547.69
463.154	2548.27
463.521	2549.61
463.888	2550.16
464.255	2550.47
464.622	2549
464.989	2549.14
465.356	2550.07
465.722	2551.03
466.089	2548.08
466.456	2551.35
466.823	2547.74
467.189	2550.34
467.556	2551.4
467.923	2550.12
468.289	2551.76
468.656	2551.15
469.022	2549.09
469.388	2549.16
469.755	2550.8
470.121	2550.71
470.487	2551.15
470.854	2550.84
471.22	2551.16
471.586	2549.2
471.952	2549.1
472.318	2549.31
472.684	2551.31
473.05	2546.77
473.416	2549.17
473.782	2546.3
474.148	2547.23
474.513	2549.69
474.879	2552.79
475.245	2551.26
475.61	2553.26
475.976	2550.54
476.342	2553.15
476.707	2551.86
477.073	2551.48
477.438	2551.71
477.803	2552.56
478.169	2551.22
478.534	2551.61
478.899	2551.95
479.264	2552.82
479.63	2551.54
479.995	2551.97
480.36	2549.95
480.725	2551.52
481.09	2551.29
481.455	2553.96
481.82	2552.54
482.185	2549.55
482.549	2553.52
482.914	2551.04
483.279	2550.1
483.644	2551.58
484.008	2553.86
484.373	2553.24
484.737	2552.94
485.102	2552.36
485.466	2550.49
485.831	2551.7
486.195	2552.5
486.559	2554.62
486.924	2555.31
487.288	2552.72
487.652	2552.8
488.016	2551.36
488.38	2552.56
488.744	2555.35
489.108	2554.63
489.472	2553.59
489.836	2552.38
490.2	2554.33
490.564	2554.65
490.928	2555.06
491.292	2550.76
491.655	2551.47
492.019	2549.01
492.383	2550.14
492.746	2554.66
493.11	2553.27
493.473	2552.57
493.837	2552.4
494.2	2553.57
494.563	2549.97
494.927	2553.27
495.29	2552.88
495.653	2556
496.016	2552.95
496.38	2555.13
496.743	2553.57
497.106	2554.99
497.469	2555.03
497.832	2555.34
498.195	2554.66
498.557	2552.89
498.92	2553.28
499.283	2552.18
499.646	2554.2
500.008	2557.1
500.371	2556.25
500.734	2552.39
501.096	2553.79
501.459	2553.84
501.821	2554.21
502.184	2556.35
502.546	2552.01
502.908	2556.62
503.271	2556.84
503.633	2553.58
503.995	2552.48
504.357	2554.43
504.719	2557.27
505.081	2555.18
505.443	2558.18
505.805	2555.89
506.167	2556.2
506.529	2554.93
506.891	2553.29
507.253	2555.27
507.615	2556.14
507.976	2556.08
508.338	2556.25
508.7	2556.37
509.061	2555
509.423	2553.61
509.784	2553.97
510.146	2553.34
510.507	2553.99
510.868	2556.77
511.23	2555.14
511.591	2555.8
511.952	2557.12
512.313	2557.11
512.675	2556.45
513.036	2555.53
513.397	2554.99
513.758	2556.06
514.119	2556.91
514.479	2554.9
514.84	2555.74
515.201	2557.31
515.562	2555.33
515.923	2554.46
516.283	2557.11
516.644	2554.79
517.005	2556.5
517.365	2554.29
517.726	2557.06
518.086	2558.03
518.447	2554.31
518.807	2555.84
519.167	2558.93
519.527	2555.23
519.888	2555.55
520.248	2559
520.608	2555.69
520.968	2556.77
521.328	2555.56
521.688	2555.08
522.048	2556.33
522.408	2554.61
522.768	2556.57
523.128	2558.67
523.488	2558.07
523.847	2553.75
524.207	2556.58
524.567	2558.48
524.926	2558.51
525.286	2557.66
525.645	2557.29
526.005	2557.32
526.364	2558.46
526.724	2557.17
527.083	2557.29
527.442	2554.26
527.802	2555.14
528.161	2553.16
528.52	2555.32
528.879	2558.18
529.238	2555.44
529.597	2559.58
529.956	2557.57
530.315	2556.98
530.674	2557.3
531.033	2557.84
531.391	2557.39
531.75	2558.58
532.109	2559.01
532.468	2556.42
532.826	2556.98
533.185	2557.12
533.543	2558.04
533.902	2558.03
534.26	2558.54
534.619	2557.77
534.977	2557.04
535.335	2557.12
535.694	2556.69
536.052	2559.08
536.41	2555.44
536.768	2557.59
537.126	2556.11
537.484	2557.65
537.842	2557.54
538.2	2558.73
538.558	2558.45
538.916	2559.83
539.274	2558.64
539.631	2559
539.989	2558.31
540.347	2558.93
540.704	2555.07
541.062	2560.31
541.419	2556.95
541.777	2558.31
542.134	2557.61
542.492	2556.35
542.849	2560
543.206	2558.42
543.564	2557.35
543.921	2559.43
544.278	2555.98
544.635	2559.01
544.992	2558.82
545.349	2555.06
545.706	2555.4
546.063	2554.5
546.42	2556.28
546.777	2558.84
547.134	2558.94
547.49	2559.49
547.847	2557.74
548.204	2559
548.561	2561.76
548.917	2555.8
549.274	2558.33
549.63	2558.01
549.987	2557.75
550.343	2559.02
550.699	2560.44
551.056	2559.9
551.412	2559.14
551.768	2560.75
552.124	2557.35
552.48	2557.64
552.836	2558.49
553.192	2559.65
553.548	2558.46
553.904	2557.79
554.26	2558.06
554.616	2558.54
554.972	2559.27
555.328	2557.21
555.683	2558.08
556.039	2559.93
556.395	2558.89
556.75	2559.9
557.106	2558.33
557.461	2560.01
557.817	2559.01
558.172	2555.57
558.527	2559.83
558.883	2558.63
559.238	2558.28
559.593	2558.38
559.948	2560.79
560.304	2559.35
560.659	2558.91
561.014	2557.69
561.369	2555.95
561.724	2558.49
562.078	2558.66
562.433	2556.37
562.788	2561.64
563.143	2556.01
563.498	2556.87
563.852	2555.56
564.207	2555.75
564.561	2557.44
564.916	2557.48
565.27	2559.99
565.625	2560.51
565.979	2559.17
566.334	2560
566.688	2561.58
567.042	2560.47
567.396	2558.15
567.75	2558.45
568.105	2560.05
568.459	2560.89
568.813	2557.07
569.167	2557.97
569.521	2559.12
569.874	2557.17
570.228	2558.66
570.582	2559.48
570.936	2558.59
571.289	2558.67
571.643	2557.89
571.997	2559.25
572.35	2558.96
572.704	2560.93
573.057	2559.63
573.411	2558.79
573.764	2558.89
574.117	2557.96
574.471	2562.49
574.824	2556.82
575.177	2558.08
575.53	2557.91
575.883	2556.46
576.236	2558.27
576.589	2559.02
576.942	2558.54
577.295	2557.31
577.648	2557.11
578.001	2559.46
578.354	2557.37
578.707	2558.16
579.059	2558.32
579.412	2558.95
579.764	2558.98
580.117	2557.7
580.469	2558.92
580.822	2555.15
581.174	2557.28
581.527	2553.92
581.879	2556.05
582.231	2558.6
582.584	2558.28
582.936	2556.39
583.288	2558.81
583.64	2559.96
583.992	2558.9
584.344	2558.98
584.696	2560.28
585.048	2559.62
585.4	2559.72
585.751	2560.76
586.103	2561.63
586.455	2560.58
586.807	2560.99
587.158	2560.23
587.51	2559.12
587.861	2560.3
588.213	2559.3
588.564	2558.42
588.916	2558.24
589.267	2560.04
589.618	2559.18
589.97	2559.66
590.321	2556.31
590.672	2561.98
591.023	2560.48
591.374	2560.48
591.725	2558.74
592.076	2559.54
592.427	2559.35
592.778	2559.13
593.129	2558.98
593.48	2560.05
593.83	2556.72
594.181	2557.56
594.532	2559.93
594.882	2558.82
595.233	2559.31
595.583	2558.33
595.934	2556.65
596.284	2558.01
596.635	2558.55
596.985	2556.52
597.335	2557.93
597.685	2558.94
598.036	2558.51
598.386	2555.14
598.736	2557.82
599.086	2556.68
599.436	2557.83
599.786	2559.28
600.136	2559.45
600.486	2559.41
600.835	2559.6
601.185	2558.17
601.535	2558.73
601.885	2558.62
602.234	2559.57
602.584	2558.94
602.933	2558.5
603.283	2561.92
603.632	2561
603.982	2561.06
604.331	2562.09
604.68	2558.6
605.03	2559.63
605.379	2557.25
605.728	2557.73
606.077	2559.61
606.426	2557.05
606.775	2560.98
607.124	2560.68
607.473	2560.24
607.822	2558.44
608.171	2561.19
608.52	2559.55
608.868	2560.38
609.217	2557.99
609.566	2559.13
609.914	2558.13
610.263	2560.43
610.611	2558.65
610.96	2557.38
611.308	2559.06
611.657	2560.16
612.005	2559.9
612.353	2557.44
612.701	2559.81
613.05	2559.24
613.398	2560.41
613.746	2559.36
614.094	2563.27
614.442	2557.1
614.79	2558.16
615.138	2561.76
615.485	2559.95
615.833	2557.13
616.181	2556.64
616.529	2556.23
616.876	2557.38
617.224	2558.19
617.572	2557.82
617.919	2559.28
618.267	2558.06
618.614	2557.2
618.961	2559.41
619.309	2558.3
619.656	2557.16
620.003	2558.97
620.35	2561.08
620.698	2557.32
621.045	2557.02
621.392	2559.33
621.739	2556.99
622.086	2559.59
622.433	2560.51
622.779	2559.96
623.126	2559.79
623.473	2559.04
623.82	2560.2
624.166	2559.56
624.513	2558.28
624.86	2557.58
625.206	2558.59
625.553	2561.31
625.899	2560.03
626.246	2560.19
626.592	2559.66
626.938	2558.9
627.284	2557.45
627.631	2557.98
627.977	2557.87
628.323	2558.35
628.669	2558.01
629.015	2556.19
629.361	2558.58
629.707	2559.49
630.053	2560.31
630.399	2559.28
630.744	2560.31
631.09	2558.5
631.436	2559.83
631.781	2559.07
632.127	2562.54
632.473	2559.11
632.818	2559.04
633.164	2554.8
633.509	2555.1
633.854	2556.44
634.2	2556.76
634.545	2558.04
634.89	2559.97
635.235	2558.34
635.58	2559.92
635.925	2560.56
636.27	2560.67
636.615	2557.77
636.96	2560.68
637.305	2559.38
637.65	2559.03
637.995	2559.35
638.34	2558.35
638.684	2559.68
639.029	2561.35
639.374	2560.08
639.718	2560.7
640.063	2558.71
640.407	2559.67
640.751	2558.99
641.096	2558.24
641.44	2559.65
641.784	2559.18
642.129	2559.29
642.473	2559.73
642.817	2560.64
643.161	2557.57
643.505	2558.67
643.849	2559.33
644.193	2562.35
644.537	2559.48
644.881	2557.99
645.224	2558.89
645.568	2557.63
645.912	2559.07
646.256	2559.31
646.599	2558.8
646.943	2558.88
647.286	2557.07
647.63	2557.93
647.973	2560.16
648.316	2559.22
648.66	2556.81
649.003	2558.8
649.346	2559.59
649.689	2559.68
650.033	2558.09
650.376	2552.91
650.719	2558.31
651.062	2555.12
651.405	2553.57
651.747	2556.49
652.09	2559
652.433	2557.24
652.776	2557.26
653.119	2559.05
653.461	2560.73
653.804	2555.06
654.146	2559.95
654.489	2558.87
654.831	2558.63
655.174	2561.63
655.516	2557.95
655.858	2559.84
656.201	2558.33
656.543	2559.41
656.885	2560.86
657.227	2556.79
657.569	2558.18
657.911	2559.8
658.253	2560.09
658.595	2560.89
658.937	2558.19
659.279	2558.23
659.621	2557.29
659.962	2560.11
660.304	2558.95
660.646	2559.6
660.987	2558.67
661.329	2557.9
661.67	2557.73
662.012	2558.2
662.353	2557.39
662.695	2559.78
663.036	2558.8
663.377	2557.4
663.718	2557.9
664.06	2558.11
664.401	2557.06
664.742	2557.24
665.083	2558.43
665.424	2558.62
665.765	2559.2
666.106	2558.93
666.446	2558.44
666.787	2557.63
667.128	2558.01
667.469	2554.63
667.809	2554.87
668.15	2555.48
668.49	2555.57
668.831	2557.57
669.171	2557.51
669.512	2558.31
669.852	2557.97
670.192	2559.22
670.533	2558.98
670.873	2556.72
671.213	2558.19
671.553	2558.65
671.893	2559.07
672.233	2558.74
672.573	2557.73
672.913	2558.71
673.253	2559.12
673.593	2559.52
673.933	2557.78
674.272	2561.39
674.612	2558.67
674.952	2560.13
675.291	2558.05
675.631	2561.29
675.97	2557.94
676.31	2556.58
676.649	2557.16
676.988	2558.3
677.328	2558.82
677.667	2560.58
678.006	2558.68
678.345	2560.96
678.684	2559.33
679.023	2557.95
679.362	2560.75
679.701	2558.82
680.04	2558.64
680.379	2556.34
680.718	2557.11
681.057	2557.99
681.395	2556.89
681.734	2558.85
682.073	2560.28
682.411	2560.4
682.75	2558.86
683.088	2557.66
683.427	2558.85
683.765	2558.45
684.103	2557.87
684.442	2555.65
684.78	2557.46
685.118	2555.78
685.456	2554.64
685.794	2556.72
686.132	2557.54
686.47	2555.7
686.808	2557.6
687.146	2558.88
687.484	2555.84
687.822	2554.64
688.159	2557.79
688.497	2557.97
688.835	2559.27
689.172	2555.86
689.51	2557.62
689.847	2558.26
690.185	2558.43
690.522	2559.42
690.86	2559.62
691.197	2560.64
691.534	2558.49
691.871	2560.13
692.209	2556.45
692.546	2557.83
692.883	2558.45
693.22	2560.26
693.557	2558.85
693.894	2557.12
694.23	2556.84
694.567	2559.18
694.904	2557.46
695.241	2558.19
695.577	2559.33
695.914	2558.27
696.251	2558.63
696.587	2558.94
696.924	2558.45
697.26	2557.83
697.596	2558.32
697.933	2557.78
698.269	2557.53
698.605	2557.8
698.942	2559.54
699.278	2559.98
699.614	2556.82
699.95	2559.33
700.286	2559.1
700.622	2560.22
700.958	2558.13
701.293	2552.54
701.629	2555.92
701.965	2553.94
702.301	2555.79
702.636	2556.86
702.972	2558.32
703.308	2559.32
703.643	2558.09
703.978	2556.42
704.314	2560.17
704.649	2556.55
704.985	2558.09
705.32	2559.23
705.655	2557.1
705.99	2556.1
706.325	2556.45
706.66	2558.08
706.995	2559.27
707.33	2559.82
707.665	2557.39
708	2557.6
708.335	2557.41
708.67	2559.64
709.004	2556.39
709.339	2556.5
709.674	2559.03
710.008	2558.01
710.343	2559.32
710.677	2557.88
711.012	2557.55
711.346	2560.87
711.68	2556.76
712.015	2559.44
712.349	2558.48
712.683	2558.22
713.017	2558.25
713.351	2556.6
713.685	2557.38
714.019	2555.47
714.353	2557.27
714.687	2558
715.021	2559.86
715.355	2558.7
715.689	2558.15
716.022	2557.49
716.356	2557.66
716.69	2556.06
717.023	2556.48
717.357	2559.3
717.69	2558.06
718.023	2554.9
718.357	2557.97
718.69	2553.33
719.023	2555.15
719.357	2557.85
719.69	2556.26
720.023	2557.14
720.356	2556.37
720.689	2556.19
721.022	2557.95
721.355	2556.28
721.688	2556.41
722.02	2557.06
722.353	2557.11
722.686	2557.03
723.019	2557.15
723.351	2557.45
723.684	2558.7
724.016	2558.32
724.349	2557.59
724.681	2555.07
725.013	2556.52
725.346	2557.49
725.678	2556.5
726.01	2559.25
726.342	2557.1
726.675	2557.86
727.007	2557.82
727.339	2556.72
727.671	2557.56
728.003	2557.89
728.334	2556.05
728.666	2555.45
728.998	2558.97
729.33	2558.27
729.661	2557.81
729.993	2558.85
730.325	2557.69
730.656	2556.22
730.988	2559.43
731.319	2558.4
731.65	2557.55
731.982	2556.06
732.313	2557.34
732.644	2559.7
732.975	2557.29
733.307	2558.45
733.638	2559.08
733.969	2558.64
734.3	2560.08
734.631	2554.97
734.961	2554.44
735.292	2553.56
735.623	2552.95
735.954	2556.99
736.284	2559.12
736.615	2555.45
736.946	2557.9
737.276	2557.45
737.607	2554.81
737.937	2555.98
738.268	2556.18
738.598	2556.99
738.928	2556.75
739.258	2556.53
739.589	2558.57
739.919	2557.5
740.249	2558.36
740.579	2557.53
740.909	2559.02
741.239	2557.48
741.569	2556.05
741.899	2558.84
742.228	2557.51
742.558	2557.92
742.888	2555.81
743.217	2554
743.547	2553.29
743.877	2558.06
744.206	2555.31
744.535	2558.24
744.865	2555.93
745.194	2557.27
745.523	2556.24
745.853	2554.82
746.182	2554.55
746.511	2555.65
746.84	2555.51
747.169	2557.06
747.498	2556.36
747.827	2559.83
748.156	2555.9
748.485	2557.34
748.814	2558.26
749.142	2557.19
749.471	2557.24
749.8	2557.17
750.128	2557
750.457	2556.25
750.785	2556.69
751.114	2553.81
751.442	2554.38
751.771	2553.95
752.099	2554.73
752.427	2558.5
752.755	2558.68
753.083	2556.06
753.412	2558.33
753.74	2559.41
754.068	2557.1
754.396	2555.77
754.723	2554.94
755.051	2554.51
755.379	2555
755.707	2556.79
756.035	2559.03
756.362	2556.83
756.69	2556.42
757.017	2557.02
757.345	2558.27
757.672	2556.36
758	2557.36
758.327	2555.65
758.654	2556.61
758.982	2557.43
759.309	2557.64
759.636	2555.74
759.963	2557.19
760.29	2555.64
760.617	2556.46
760.944	2558.03
761.271	2557.02
761.598	2556.22
761.924	2555.61
762.251	2553.4
762.578	2555.83
762.905	2556.57
763.231	2557.25
763.558	2557.18
763.884	2556.31
764.211	2554.69
764.537	2556.1
764.863	2557.75
765.19	2553.39
765.516	2554.59
765.842	2557.05
766.168	2554.07
766.494	2556.76
766.82	2557.33
767.146	2558.58
767.472	2555.09
767.798	2552.91
768.124	2550.99
768.45	2552.99
768.776	2554.63
769.101	2555.26
769.427	2555.93
769.752	2556.23
770.078	2556.81
770.404	2556.18
770.729	2556.32
771.054	2556.36
771.38	2554.31
771.705	2556.87
772.03	2556.97
772.355	2556.94
772.681	2555.55
773.006	2558.94
773.331	2557.35
773.656	2557.55
773.981	2555.44
774.305	2556.4
774.63	2556.25
774.955	2556.02
775.28	2559.28
775.604	2555.96
775.929	2556.24
776.254	2558.14
776.578	2556.32
776.903	2554.62
777.227	2557.19
777.551	2555.87
777.876	2555.93
778.2	2553.92
778.524	2554.24
778.849	2557.29
779.173	2554.75
779.497	2557.32
779.821	2554.33
780.145	2555.94
780.469	2558.03
780.793	2557.18
781.116	2557.11
781.44	2557.03
781.764	2556.65
782.087	2556.12
782.411	2553.01
782.735	2553.55
783.058	2556.96
783.382	2557.63
783.705	2552.42
784.028	2552.74
784.352	2551.97
784.675	2552.19
784.998	2553.88
785.321	2555.49
785.645	2556.49
785.968	2556.18
786.291	2554.09
786.614	2554.57
786.936	2555.43
787.259	2554.45
787.582	2556.27
787.905	2554.44
788.228	2555.03
788.55	2555.89
788.873	2556.42
789.195	2555.23
789.518	2555.73
789.84	2553.7
790.163	2555.01
790.485	2558.34
790.807	2553.38
791.13	2556.08
791.452	2555.86
791.774	2557.56
792.096	2557.13
792.418	2554.11
792.74	2554.72
793.062	2555.49
793.384	2556.76
793.706	2554.19
794.028	2555.09
794.349	2555.38
794.671	2555.07
794.993	2556.85
795.314	2553.36
795.636	2554.39
795.957	2555.64
796.279	2556.71
796.6	2556.93
796.921	2557.21
797.243	2555.7
797.564	2555.98
797.885	2553.83
798.206	2556.47
798.527	2556.39
798.848	2555.16
799.169	2555.49
799.49	2557.77
799.811	2550.33
800.132	2552.96
800.453	2552.23
800.774	2552.45
801.094	2555.44
801.415	2555.85
801.735	2555.89
802.056	2555.9
802.376	2553.68
802.697	2556.73
803.017	2556.58
803.337	2555.19
803.658	2556.47
803.978	2556.8
804.298	2553.55
804.618	2556.64
804.938	2552.7
805.258	2554.08
805.578	2554.67
805.898	2556.27
806.218	2555.95
806.538	2553.77
806.858	2553.65
807.177	2556.46
807.497	2556.09
807.816	2554.61
808.136	2555.38
808.455	2556.84
808.775	2554.49
809.094	2554.87
809.414	2555.65
809.733	2556.4
810.052	2554.67
810.371	2554.03
810.691	2554.46
811.01	2556.74
811.329	2554.9
811.648	2555.06
811.967	2554.34
812.285	2554.2
812.604	2552.66
812.923	2555.62
813.242	2554.53
813.56	2555.16
813.879	2554.04
814.198	2554.55
814.516	2555.32
814.835	2554.88
815.153	2552.89
815.471	2558.29
815.79	2550.98
816.108	2553.76
816.426	2551.82
816.744	2551.91
817.062	2554.92
817.381	2556.55
817.699	2555.56
818.016	2556.45
818.334	2552.79
818.652	2555.83
818.97	2554.07
819.288	2552.68
819.605	2554.66
819.923	2555.83
820.241	2554.53
820.558	2553.1
820.876	2552.81
821.193	2556.21
821.511	2556.09
821.828	2553.78
822.145	2555.1
822.462	2553.74
822.78	2552.62
823.097	2552.47
823.414	2552.26
823.731	2554.09
824.048	2553.1
824.365	2555.37
824.682	2552.8
824.998	2558.08
825.315	2558.11
825.632	2552.66
825.949	2555.12
826.265	2553.54
826.582	2554.09
826.898	2554.99
827.215	2554.2
827.531	2555.83
827.847	2554.49
828.164	2554.34
828.48	2553.41
828.796	2554.08
829.112	2553.81
829.428	2554.9
829.744	2555.69
830.06	2554.04
830.376	2554.75
830.692	2552.28
831.008	2551.72
831.324	2555.45
831.64	2551.04
831.955	2551.69
832.271	2551.48
832.587	2548.36
832.902	2553.32
833.218	2553.53
833.533	2553.85
833.848	2553.93
834.164	2556.22
834.479	2554.7
834.794	2553.88
835.109	2554.13
835.424	2554.18
835.739	2555.7
836.054	2553.95
836.369	2556.49
836.684	2553.36
836.999	2553.61
837.314	2554.99
837.629	2554.67
837.943	2554.67
838.258	2554.03
838.573	2554.15
838.887	2556.65
839.202	2558.72
839.516	2552.61
839.831	2554.14
840.145	2555.09
840.459	2554.39
840.773	2554.5
841.088	2555.08
841.402	2554.76
841.716	2552.78
842.03	2554.24
842.344	2553.36
842.658	2553.76
842.972	2553.83
843.285	2551.39
843.599	2552.26
843.913	2555.08
844.226	2553.51
844.54	2552.25
844.854	2554.04
845.167	2553.16
845.481	2554.43
845.794	2553.61
846.107	2554.74
846.421	2552.88
846.734	2552.49
847.047	2554.95
847.36	2551.04
847.673	2551.27
847.986	2549.2
848.299	2553.36
848.612	2554.75
848.925	2553.97
849.238	2553.92
849.551	2552.66
849.863	2554.6
850.176	2553.23
850.489	2553.77
850.801	2551.46
851.114	2553.06
851.426	2554.2
851.739	2552.07
852.051	2554.29
852.363	2553.11
852.675	2551.68
852.988	2552.19
853.3	2553.7
853.612	2554.64
853.924	2553.97
854.236	2553.34
854.548	2553.42
854.86	2554.29
855.172	2554.91
855.483	2552.2
855.795	2553.26
856.107	2555.54
856.418	2554.86
856.73	2554.59
857.041	2553.19
857.353	2554.13
857.664	2552.83
857.976	2553.21
858.287	2554.87
858.598	2552.61
858.909	2552.21
859.221	2553.71
859.532	2551.91
859.843	2553.42
860.154	2552.24
860.465	2552.51
860.775	2553.12
861.086	2554.28
861.397	2555.52
861.708	2553.77
862.018	2552.12
862.329	2553.02
862.64	2554.61
862.95	2551.37
863.261	2550.12
863.571	2547.89
863.881	2551.12
864.192	2555.8
864.502	2551.27
864.812	2552.31
865.122	2552.81
865.432	2552.21
865.742	2552.69
866.052	2552.52
866.362	2552.93
866.672	2551.16
866.982	2553.6
867.292	2552.22
867.602	2551.64
867.911	2553.06
868.221	2551.77
868.53	2555.11
868.84	2552.01
869.149	2554.82
869.459	2553.36
869.768	2555.18
870.078	2551.9
870.387	2554.21
870.696	2552.35
871.005	2552.08
871.314	2554.47
871.623	2555.51
871.932	2551.93
872.241	2553.64
872.55	2553.53
872.859	2551.51
873.168	2553.41
873.476	2552.59
873.785	2552.48
874.094	2553.41
874.402	2553.99
874.711	2551.09
875.019	2553.82
875.328	2551.46
875.636	2552.87
875.944	2551.74
876.253	2550.9
876.561	2552.4
876.869	2550.58
877.177	2554.23
877.485	2551.45
877.793	2551.83
878.101	2554.57
878.409	2550.24
878.717	2550.89
879.024	2550.41
879.332	2550.07
879.64	2554.99
879.947	2551.98
880.255	2555.01
880.563	2551.03
880.87	2554.91
881.177	2554.03
881.485	2552.17
881.792	2551.08
882.099	2553.41
882.406	2551.31
882.714	2554.12
883.021	2552.01
883.328	2553.32
883.635	2552.15
883.942	2551.01
884.249	2553.6
884.555	2553.8
884.862	2553.29
885.169	2555.42
885.475	2554.49
885.782	2555.25
886.089	2553.65
886.395	2552.45
886.702	2555.01
887.008	2551.83
887.314	2553.67
887.621	2553.08
887.927	2552.12
888.233	2555.33
888.539	2552.44
888.845	2552.88
889.151	2550.91
889.457	2552.2
889.763	2553.25
890.069	2553.07
890.375	2551.91
890.681	2553.34
890.986	2553.51
891.292	2553.55
891.598	2553.7
891.903	2553.36
892.209	2552.1
892.514	2551.53
892.819	2553.21
893.125	2554.12
893.43	2553.01
893.735	2548.78
894.04	2550.43
894.346	2549.35
894.651	2551.23
894.956	2550.95
895.261	2554.89
895.565	2553.64
895.87	2552.26
896.175	2552.08
896.48	2551.65
896.785	2552.37
897.089	2549.67
897.394	2551.8
897.698	2552.14
898.003	2552.42
898.307	2553.11
898.612	2549.73
898.916	2550.93
899.22	2554.11
899.524	2552.52
899.829	2552.79
900.133	2551.82
900.437	2553.57
900.741	2551.93
901.045	2553.3
901.348	2554.03
901.652	2553.21
901.956	2551.22
902.26	2549.99
902.564	2550.48
902.867	2553.21
903.171	2552.89
903.474	2551.28
903.778	2552.01
904.081	2553.6
904.384	2551.18
904.688	2552.6
904.991	2549.3
905.294	2550.78
905.597	2552.14
905.9	2552.49
906.203	2552.41
906.506	2553.81
906.809	2553.2
907.112	2553.55
907.415	2552.86
907.718	2551.14
908.021	2553.47
908.323	2552.35
908.626	2553.69
908.928	2550.62
909.231	2551.18
909.533	2548.38
909.836	2548.15
910.138	2550.13
910.44	2551.99
910.742	2553.08
911.045	2552.72
911.347	2550.91
911.649	2553.05
911.951	2552.16
912.253	2550.39
912.555	2552.22
912.857	2551.84
913.158	2551.51
913.46	2552.19
913.762	2552.8
914.063	2555.47
914.365	2550.98
914.667	2551.17
914.968	2551.53
915.269	2554.16
915.571	2553.24
915.872	2551.74
916.173	2552.05
916.475	2550.98
916.776	2551.98
917.077	2552.7
917.378	2551.84
917.679	2552.81
917.98	2553.45
918.281	2552
918.582	2553.62
918.882	2551.67
919.183	2551.6
919.484	2553.86
919.784	2553.39
920.085	2552.24
920.385	2552.26
920.686	2550.66
920.986	2551.67
921.287	2554.04
921.587	2553.75
921.887	2552.4
922.187	2551.82
922.487	2553.6
922.787	2551.84
923.087	2549.86
923.387	2548.73
923.687	2553.83
923.987	2547.13
924.287	2548.02
924.587	2546.74
924.886	2550.11
925.186	2550.27
925.486	2549.29
925.785	2551.04
926.085	2552.57
926.384	2552.24
926.683	2553.17
926.983	2552.27
927.282	2550.12
927.581	2549.66
927.88	2553.12
928.18	2551.01
928.479	2549.78
928.778	2552.65
929.076	2552.49
929.375	2550.18
929.674	2551.77
929.973	2550.15
930.272	2551.24
930.57	2551.52
930.869	2551.13
931.168	2550.94
931.466	2553
931.764	2550.39
932.063	2553.13
932.361	2551.68
932.66	2550.38
932.958	2553.86
933.256	2550.28
933.554	2552.98
933.852	2550.28
934.15	2550.02
934.448	2553.03
934.746	2552.21
935.044	2551.18
935.342	2552.34
935.639	2553.5
935.937	2551.1
936.235	2550
936.532	2552.81
936.83	2551.6
937.127	2552.5
937.425	2552.57
937.722	2550.2
938.019	2550.43
938.317	2551.98
938.614	2554.34
938.911	2548.14
939.208	2549.53
939.505	2546.97
939.802	2548.11
940.099	2549.17
940.396	2553.03
940.693	2550.91
940.989	2551.63
941.286	2551.2
941.583	2551.81
941.879	2551.95
942.176	2549.41
942.472	2549.38
942.769	2550.83
943.065	2551.05
943.362	2551.73
943.658	2551.26
943.954	2551.89
944.25	2551.44
944.546	2551.18
944.842	2553.93
945.138	2553.06
945.434	2549.14
945.73	2549.7
946.026	2552.86
946.322	2549.71
946.618	2551.58
946.913	2549.25
947.209	2551.04
947.504	2552.2
947.8	2551.17
948.095	2550.59
948.391	2551.18
948.686	2552.74
948.981	2548.99
949.277	2550.4
949.572	2550.11
949.867	2550.71
950.162	2549.14
950.457	2552.07
950.752	2552.85
951.047	2549.78
951.342	2551.12
951.637	2549.32
951.931	2550.72
952.226	2551.48
952.521	2550.98
952.815	2550.68
953.11	2551.46
953.404	2552.17
953.699	2547.93
953.993	2549.2
954.287	2547.19
954.582	2547.56
954.876	2551.14
955.17	2551.52
955.464	2552.05
955.758	2550.61
956.052	2551.71
956.346	2552.61
956.64	2548.24
956.934	2549.73
957.227	2551.46
957.521	2549.02
957.815	2550.13
958.108	2550.65
958.402	2552.09
958.695	2551.78
958.989	2550.5
959.282	2550.35
959.575	2552.4
959.869	2549.79
960.162	2551.59
960.455	2550.53
960.748	2552.08
961.041	2550.85
961.334	2550.94
961.627	2550.57
961.92	2550.71
962.213	2551.84
962.505	2551.49
962.798	2547.82
963.091	2552.54
963.383	2550.87
963.676	2549.72
963.968	2548.53
964.261	2550.54
964.553	2550.54
964.846	2550.49
965.138	2550.16
965.43	2551.21
965.722	2550.3
966.014	2552.75
966.306	2549.18
966.598	2548.42
966.89	2551.8
967.182	2551.53
967.474	2549.53
967.766	2550.74
968.058	2548.98
968.349	2548.72
968.641	2548.09
968.932	2547.2
969.224	2549.12
969.515	2550.44
969.807	2551.02
970.098	2550.14
970.389	2551.62
970.681	2551.49
970.972	2550.82
971.263	2549.76
971.554	2550.95
971.845	2549.37
972.136	2551.06
972.427	2549.91
972.718	2550.54
973.008	2550.95
973.299	2550.52
973.59	2550.79
973.88	2551.32
974.171	2550.65
974.461	2550.94
974.752	2547.88
975.042	2548.23
975.333	2551.99
975.623	2552.04
975.913	2552.08
976.203	2549
976.493	2552.09
976.783	2550.4
977.073	2552.38
977.363	2551.53
977.653	2551.17
977.943	2552.02
978.233	2548.13
978.523	2549.87
978.812	2548.55
979.102	2550.17
979.391	2551.34
979.681	2551.52
979.97	2550.88
980.26	2548.95
980.549	2550.47
980.838	2551.53
981.128	2549.41
981.417	2548.71
981.706	2549.53
981.995	2551.15
982.284	2547.3
982.573	2551.05
982.862	2546.44
983.151	2546.98
983.44	2545.43
983.728	2549.4
984.017	2550.27
984.306	2549.51
984.594	2551.38
984.883	2551.64
985.171	2550.79
985.459	2550.95
985.748	2547.77
986.036	2550.08
986.324	2548.66
986.612	2549.67
986.901	2549.38
987.189	2549.02
987.477	2550.1
987.765	2551.51
988.052	2551.62
988.34	2549.12
988.628	2548.57
988.916	2549.43
989.204	2550.63
989.491	2550.09
989.779	2550.2
990.066	2549.68
990.354	2550.37
990.641	2550.91
990.928	2550.53
991.216	2549.97
991.503	2550.49
991.79	2549.68
992.077	2549.86
992.364	2550.11
992.651	2549.43
992.938	2550.95
993.225	2550.06
993.512	2550.81
993.799	2551.29
994.085	2550.04
994.372	2549.51
994.659	2553.18
994.945	2548.58
995.232	2548.93
995.518	2549.41
995.805	2550.9
996.091	2548.56
996.377	2549.51
996.663	2548.7
996.95	2550.82
997.236	2546.29
997.522	2545.48
997.808	2544.17
998.094	2547.77
998.379	2548.99
998.665	2548.66
998.951	2548.38
999.237	2548.66
999.522	2550.54
999.808	2550.08
1000.094	2549.77
1000.379	2551.13
1000.665	2548.25
1000.95	2550.67
1001.235	2549.98
1001.521	2547.14
1001.806	2549.1
1002.091	2547.66
1002.376	2550.04
1002.661	2550.72
1002.946	2549.82
1003.231	2549.73
1003.516	2547.5
1003.801	2550.7
1004.085	2549.63
1004.37	2548.63
1004.655	2548.58
1004.939	2549.34
1005.224	2547.64
1005.508	2549.55
1005.793	2551.23
1006.077	2545.86
1006.361	2550.98
1006.646	2549.64
1006.93	2548.85
1007.214	2548.39
1007.498	2548.59
1007.782	2548.76
1008.066	2548.63
1008.35	2550.36
1008.634	2549.28
1008.918	2549.75
1009.202	2549.86
1009.485	2547.02
1009.769	2550.52
1010.052	2550.27
1010.336	2549.38
1010.619	2549.64
1010.903	2547.75
1011.186	2548.85
1011.47	2545.59
1011.753	2548.49
1012.036	2544.38
1012.319	2547.7
1012.602	2549.72
1012.885	2549.96
1013.168	2548.22
1013.451	2548.43
1013.734	2548.98
1014.017	2549.09
1014.299	2549.22
1014.582	2549.1
1014.865	2548.79
1015.147	2548.84
1015.43	2549.09
1015.712	2547.84
1015.995	2547.78
1016.277	2548.67
1016.559	2548.27
1016.842	2547.47
1017.124	2546.24
1017.406	2550.97
1017.688	2550.44
1017.97	2547.02
1018.252	2547.87
1018.534	2549.19
1018.816	2547.62
1019.097	2548.01
1019.379	2547.86
1019.661	2550.61
1019.942	2550.94
1020.224	2547.49
1020.505	2550.4
1020.787	2548.79
1021.068	2548.56
1021.349	2550.33
1021.631	2547.39
1021.912	2550.41
1022.193	2549.02
1022.474	2549.02
1022.755	2549.02
