Data from FLMS017661__0__15-26-07-360.txt Node

Date: Fri Oct 27 15:26:07 PDT 2023
User: eway
Spectrometer: FLMS01766
Trigger mode: 0
Integration Time (sec): 1.000000E-3
Scans to average: 1000
Electric dark correction enabled: false
Nonlinearity correction enabled: false
Boxcar width: 0
XAxis mode: Wavelengths
Number of Pixels in Spectrum: 2048
>>>>>Begin Spectral Data<<<<<
339.673	2409.15
340.054	2409.15
340.435	2409.15
340.816	2355.79
341.197	2351.91
341.578	2346.44
341.959	2349.45
342.339	2346.79
342.72	2355.27
343.101	2360.74
343.482	2376.04
343.862	2390.75
344.243	2405.42
344.624	2421.89
345.004	2439.8
345.385	2456.16
345.765	2476.04
346.146	2496.66
346.526	2513.17
346.906	2532.13
347.287	2550.18
347.667	2567.75
348.047	2583.35
348.427	2647.8
348.808	2779.77
349.188	2797.19
349.568	2810.22
349.948	2824.68
350.328	2844.34
350.708	2865.1
351.088	2879.46
351.467	2885.22
351.847	2885.87
352.227	2891.07
352.607	2898.84
352.986	2909.85
353.366	2913.46
353.746	2918.02
354.125	2920.87
354.505	2926.86
354.884	2928.24
355.264	2931.62
355.643	2933.54
356.022	2935.79
356.402	2935.53
356.781	2933.08
357.16	2938.48
357.54	2934.64
357.919	2936.27
358.298	2934.71
358.677	2933.64
359.056	2933.87
359.435	2933.44
359.814	2935
360.193	2935.17
360.572	2938.03
360.95	2939.73
361.329	2932.02
361.708	2931.08
362.087	2930.69
362.465	2930.13
362.844	2937.39
363.222	2937.69
363.601	2941.02
363.979	2944.36
364.358	2949.2
364.736	2958.13
365.115	2964.24
365.493	2967.31
365.871	2981.77
366.249	2992.37
366.628	3003.59
367.006	3006.16
367.384	3013.54
367.762	3020.57
368.14	3030.66
368.518	3039.34
368.896	3045.49
369.274	3051.35
369.652	3072.07
370.03	3090.98
370.407	3113.31
370.785	3123.54
371.163	3125.71
371.54	3132.27
371.918	3161.41
372.296	3180.51
372.673	3175.98
373.051	3176.21
373.428	3195.71
373.805	3203.08
374.183	3187.13
374.56	3201.53
374.937	3224.88
375.315	3234.07
375.692	3255.07
376.069	3320.17
376.446	3362.47
376.823	3370.68
377.2	3388.78
377.577	3437.35
377.954	3497.73
378.331	3575.73
378.708	3629.82
379.085	3655.05
379.461	3627.73
379.838	3585.33
380.215	3567.86
380.592	3597.73
380.968	3663.32
381.345	3753.6
381.721	3771.24
382.098	3729.86
382.474	3663.62
382.851	3614.59
383.227	3570.4
383.603	3550.35
383.979	3544.88
384.356	3581.31
384.732	3677.88
385.108	3831.73
385.484	3953.32
385.86	3993.05
386.236	3960.2
386.612	3970.84
386.988	4030.96
387.364	4107.35
387.74	4120.5
388.116	4148.93
388.491	4181.3
388.867	4210.61
389.243	4240.03
389.618	4332.64
389.994	4534.5
390.37	4688.47
390.745	4727.55
391.121	4816.97
391.496	4900.57
391.871	5060.12
392.247	5109.12
392.622	5010.93
392.997	4805.07
393.372	4531.42
393.748	4184.05
394.123	4032.88
394.498	4233.27
394.873	4668.97
395.248	5040.11
395.623	5402.03
395.998	5480.27
396.373	5467.29
396.747	5210.56
397.122	4782.03
397.497	4447.74
397.872	4629.28
398.246	5167.39
398.621	5833.58
398.996	6184.25
399.37	6400.66
399.745	6596.81
400.119	6694.42
400.493	6762.47
400.868	6902.24
401.242	6896.71
401.616	6985.31
401.991	7208.7
402.365	7284.15
402.739	7454.2
403.113	7511.48
403.487	7376.4
403.861	7382.84
404.235	7367.39
404.609	7593.25
404.983	7500.06
405.357	7512.11
405.731	7611.25
406.105	7606.26
406.478	7768.21
406.852	7672.51
407.226	7716.23
407.599	7766.41
407.973	7970.4
408.346	8055.53
408.72	8180.54
409.093	8558.32
409.467	8872.48
409.84	8740.34
410.213	8595.78
410.587	8252.86
410.96	8204.14
411.333	8544.8
411.706	9083.98
412.079	9639.47
412.452	9523.75
412.825	9569.42
413.198	9803.32
413.571	9637.96
413.944	9631.15
414.317	9853.27
414.69	10018.82
415.062	10068.29
415.435	10100.96
415.808	9874.99
416.18	9998.26
416.553	10355.64
416.925	10416.01
417.298	10498.04
417.67	10413.43
418.043	10168.07
418.415	9956.94
418.788	10133.44
419.16	10317.33
419.532	10188.04
419.904	10556.48
420.276	10505.18
420.648	10169.59
421.021	10529.16
421.393	10658.16
421.765	11090.73
422.136	10925.14
422.508	10915.17
422.88	10489.72
423.252	10550.98
423.624	10456.8
423.996	10717.91
424.367	10904.12
424.739	11208.67
425.11	11101.76
425.482	11174.48
425.854	11157.97
426.225	11273.6
426.596	11137.7
426.968	11635.96
427.339	11525.43
427.71	11144.05
428.082	11252.07
428.453	11607.89
428.824	11731.56
429.195	11722.26
429.566	11893.7
429.937	11405.55
430.308	11092.91
430.679	10383.98
431.05	9989.99
431.421	10063.66
431.792	10966.29
432.163	12424.83
432.533	13743.9
432.904	13758.72
433.275	13876.75
433.645	13886.65
434.016	14176.6
434.386	13626.83
434.757	13566
435.127	14033.5
435.498	14730.72
435.868	14953.72
436.238	15240.31
436.609	15712.17
436.979	16265.54
437.349	16529.13
437.719	16254.16
438.089	15873.37
438.459	15844.44
438.829	14863.14
439.199	14751.88
439.569	15270.98
439.939	16337.54
440.309	16408.22
440.679	16787.27
441.048	15752.98
441.418	16843.38
441.788	17174.79
442.157	17692.28
442.527	17607.25
442.896	18082.41
443.266	18167.73
443.635	18025.54
444.005	18141.38
444.374	17819.12
444.743	17980.31
445.113	17790.7
445.482	18606.8
445.851	18114.96
446.22	17471.91
446.589	17312.83
446.958	17548.26
447.327	18451.93
447.696	18873.62
448.065	19088.52
448.434	19387.75
448.803	18998.59
449.172	19334.67
449.541	19573.43
449.909	19120.7
450.278	19937.31
450.647	20330.18
451.015	20532.95
451.384	20972.7
451.752	21727.17
452.121	21020.81
452.489	20955.38
452.857	20577.45
453.226	20310.72
453.594	19893.19
453.962	20393.8
454.33	20626.03
454.699	21614.11
455.067	21151.24
455.435	21378.17
455.803	21227.79
456.171	21854.82
456.539	22518.6
456.906	23298.26
457.274	23210.92
457.642	23815.55
458.01	23892.46
458.378	22458.45
458.745	23425.53
459.113	23443.13
459.48	23908.23
459.848	23769.77
460.215	23882.28
460.583	24030.42
460.95	24947.59
461.318	25162.73
461.685	25290.35
462.052	26247.59
462.419	26269.7
462.787	26482.75
463.154	26666.48
463.521	26681.47
463.888	26305.48
464.255	26541.26
464.622	26372.13
464.989	26485.03
465.356	26284.79
465.722	26427.69
466.089	27414.4
466.456	27427.85
466.823	27136.4
467.189	26675.45
467.556	26888.93
467.923	27246.24
468.289	27977.16
468.656	27838.68
469.022	28495.04
469.388	28493.05
469.755	28988.95
470.121	29054.25
470.487	28775.97
470.854	28559.13
471.22	28794.31
471.586	29134.51
471.952	30007.79
472.318	30844.75
472.684	31915.46
473.05	31907.46
473.416	31569.52
473.782	31523.58
474.148	32017.93
474.513	32536.94
474.879	33352.46
475.245	33857.67
475.61	33750.78
475.976	33847.41
476.342	33981.81
476.707	34038.71
477.073	34296.95
477.438	35134.44
477.803	36374.9
478.169	37060.73
478.534	37476.68
478.899	37589.31
479.264	37863.46
479.63	38291.63
479.995	39101.74
480.36	39540.06
480.725	39591.79
481.09	40115.05
481.455	40342.71
481.82	40986.3
482.185	41678.17
482.549	42503.65
482.914	42267.47
483.279	42167.59
483.644	42592.31
484.008	42758.56
484.373	43110.45
484.737	43018.31
485.102	43403.15
485.466	43764.1
485.831	42761.49
486.195	40356.96
486.559	38212.02
486.924	37886.19
487.288	39594.12
487.652	41837.66
488.016	43241.04
488.38	44646.31
488.744	45549.7
489.108	45431.13
489.472	45144.95
489.836	46228.47
490.2	47896.92
490.564	49190.96
490.928	49094.34
491.292	49225.15
491.655	49020.76
492.019	48471.86
492.383	47552.39
492.746	47147.46
493.11	48467.37
493.473	50011.42
493.837	50182.87
494.2	49730.31
494.563	49996.2
494.927	50840.82
495.29	51936.76
495.653	51950.24
496.016	51226.92
496.38	51026.25
496.743	51143.71
497.106	51883.85
497.469	52235.97
497.832	52268.72
498.195	51985.11
498.557	51071.4
498.92	50201.61
499.283	50296.92
499.646	51325.43
500.008	51728.44
500.371	51264.83
500.734	50455.9
501.096	49817.7
501.459	49352.75
501.821	49126.27
502.184	48798.72
502.546	48989.26
502.908	49587.18
503.271	50306.87
503.633	50491.37
503.995	50214.26
504.357	49368.49
504.719	48874.21
505.081	49397.09
505.443	50030.74
505.805	50753.87
506.167	51728.24
506.529	52096.09
506.891	52152.53
507.253	51460.73
507.615	50941.43
507.976	50618.58
508.338	50179.04
508.7	50018.24
509.061	50419.23
509.423	52141.21
509.784	52230.52
510.146	51435.33
510.507	51026.91
510.868	51241.83
511.23	51480.51
511.591	51575.44
511.952	52586.41
512.313	52672.39
512.675	52627.49
513.036	51422.38
513.397	51575.73
513.758	50987.39
514.119	50915.75
514.479	51030.69
514.84	50797.19
515.201	51195.23
515.562	52179.88
515.923	52096.72
516.283	52488.71
516.644	51350.01
517.005	48934.53
517.365	46222.4
517.726	46439.13
518.086	47734.98
518.447	48630.28
518.807	48755.72
519.167	48780.1
519.527	50154.34
519.888	51183.39
520.248	52280.18
520.608	52962.71
520.968	52810.42
521.328	52877.73
521.688	53292.4
522.048	54141.62
522.408	54690.76
522.768	54363.45
523.128	53774.02
523.488	53178.34
523.847	54055.36
524.207	54860
524.567	55869.93
524.926	56324.01
525.286	56361.97
525.645	56136.17
526.005	56232.4
526.364	55958.91
526.724	54898.77
527.083	53058.23
527.442	52334.38
527.802	53300.91
528.161	54941.77
528.52	55962.2
528.879	56849.96
529.238	57660.17
529.597	58171.55
529.956	58074.56
530.315	57799.74
530.674	57891.09
531.033	58305.49
531.391	58747.2
531.75	59362.27
532.109	59024.27
532.468	58532.54
532.826	57793.19
533.185	56812.53
533.543	56982.49
533.902	57729.51
534.26	58209.97
534.619	58406.45
534.977	58358.12
535.335	58825.47
535.694	59028.92
536.052	59586.78
536.41	59594.59
536.768	59178.74
537.126	58475.76
537.484	58150.07
537.842	58036.12
538.2	58538.29
538.558	58700.29
538.916	58824.93
539.274	58579.79
539.631	58229.94
539.989	57732.07
540.347	57431.82
540.704	57039.94
541.062	56757.31
541.419	56701.6
541.777	57138.23
542.134	57605.19
542.492	57807.18
542.849	57770.52
543.206	57463.72
543.564	57453.89
543.921	57502.73
544.278	57835.73
544.635	58214.84
544.992	57968.54
545.349	58000.79
545.706	57759.45
546.063	57852.01
546.42	57813.98
546.777	57644.22
547.134	57896.66
547.49	57658.18
547.847	57261.61
548.204	57288.94
548.561	57011.39
548.917	57498.9
549.274	57849.44
549.63	57565.96
549.987	58287.96
550.343	58026.28
550.699	57716.14
551.056	57544.15
551.412	57621.64
551.768	57442.35
552.124	57565.84
552.48	58186.87
552.836	57663
553.192	57472.88
553.548	57176.34
553.904	57393.14
554.26	57800.45
554.616	58141.41
554.972	57918.04
555.328	58367.99
555.683	58182.07
556.039	58467
556.395	57815.6
556.75	57737.24
557.106	57522.83
557.461	56804.36
557.817	57559.72
558.172	57353.35
558.527	57452.64
558.883	56848.29
559.238	56683.23
559.593	56783
559.948	56992.33
560.304	56378.41
560.659	57209.8
561.014	58035.83
561.369	58008.11
561.724	57957.13
562.078	57746.17
562.433	57734.5
562.788	57915.57
563.143	57971.53
563.498	58334.59
563.852	58342.19
564.207	58078.6
564.561	58154.76
564.916	58355.82
565.27	58526.29
565.625	58173.02
565.979	57804.77
566.334	57429.37
566.688	57790.25
567.042	57940.26
567.396	58521.61
567.75	58791.22
568.105	58666.31
568.459	58607.13
568.813	58067.93
569.167	58057.25
569.521	58044.39
569.874	58414.76
570.228	58482.82
570.582	58579.37
570.936	58075.61
571.289	57664.84
571.643	57826.9
571.997	58090.88
572.35	58846.73
572.704	59312.24
573.057	59600.79
573.411	59766.2
573.764	59639.61
574.117	59796.87
574.471	59747.4
574.824	59730.34
575.177	59794.01
575.53	59381.77
575.883	59401.27
576.236	59246.07
576.589	59510.58
576.942	59735.8
577.295	59820.27
577.648	59868.89
578.001	59941.02
578.354	59742.16
578.707	59583.04
579.059	59262.48
579.412	59388.99
579.764	59734.27
580.117	60021.92
580.469	60288.47
580.822	60259.14
581.174	60389.56
581.527	60415.62
581.879	60428.06
582.231	60562.77
582.584	60792.61
582.936	60912.69
583.288	60961.85
583.64	60753
583.992	60939.14
584.344	60807.31
584.696	60684.65
585.048	60762.78
585.4	60312
585.751	59877.64
586.103	59485.9
586.455	59255.09
586.807	59369.48
587.158	59636.58
587.51	59455.65
587.861	59429
588.213	59219.88
588.564	58455.7
588.916	57231.15
589.267	55480.29
589.618	53683.41
589.97	53219.89
590.321	53712.67
590.672	55184.6
591.023	56039.03
591.374	56406.17
591.725	56749.57
592.076	56318.06
592.427	56419.09
592.778	56110.68
593.129	56603.64
593.48	56842.14
593.83	56738.36
594.181	56645.55
594.532	56301.7
594.882	55793.05
595.233	55685.72
595.583	55836.45
595.934	56140.94
596.284	56610.87
596.635	56681.53
596.985	56734.39
597.335	56629.23
597.685	56548.35
598.036	56576.91
598.386	56275.34
598.736	56427.11
599.086	56085.66
599.436	56727.67
599.786	56651.77
600.136	56904.78
600.486	56798.68
600.835	56539.34
601.185	56528.51
601.535	56407.42
601.885	56283.08
602.234	56269.22
602.584	55968.69
602.933	56340.5
603.283	56368.14
603.632	56820.24
603.982	57021.87
604.331	57056.42
604.68	57020.37
605.03	57579.3
605.379	56973.16
605.728	57380.12
606.077	56990.2
606.426	56915.98
606.775	56885.64
607.124	56983.93
607.473	57230.54
607.822	56892.46
608.171	57099.97
608.52	56690.77
608.868	56339.14
609.217	56558.99
609.566	56738.53
609.914	56982.57
610.263	56417.49
610.611	56435.98
610.96	56104
611.308	56365.97
611.657	56648.4
612.005	56719.71
612.353	56537.9
612.701	56380.66
613.05	56346.53
613.398	56367.24
613.746	56353.44
614.094	55950.49
614.442	55894.82
614.79	55844.1
615.138	56382.27
615.485	56147.56
615.833	56149.02
616.181	55905.22
616.529	55177.64
616.876	54935.36
617.224	54815.53
617.572	55047.75
617.919	55968.4
618.267	56214.14
618.614	56655.79
618.961	56665.48
619.309	56215.96
619.656	56124.71
620.003	56373.11
620.35	56423.08
620.698	57048.96
621.045	57100.11
621.392	56918.61
621.739	56637.76
622.086	56454.91
622.433	56291.25
622.779	56366.96
623.126	56255.15
623.473	56073.79
623.82	55758.4
624.166	55837.78
624.513	55527.11
624.86	55597.6
625.206	55331.96
625.553	55090.41
625.899	55021.83
626.246	55031.3
626.592	55216.23
626.938	55537.98
627.284	55504.08
627.631	55176.92
627.977	54424.04
628.323	53713.53
628.669	53525.7
629.015	53924.54
629.361	54010.22
629.707	54274.38
630.053	54053.37
630.399	53868.72
630.744	53816.4
631.09	53995.61
631.436	54218.58
631.781	53870.11
632.127	53615.42
632.473	53625.06
632.818	54151.97
633.164	54380.63
633.509	54366.93
633.854	54523.38
634.2	54139.56
634.545	53845.31
634.89	54038.11
635.235	54117.79
635.58	54313.86
635.925	54231.86
636.27	53802.33
636.615	53611.97
636.96	53689.21
637.305	54037.01
637.65	54077.79
637.995	54185.31
638.34	54065.95
638.684	54189.53
639.029	53896.75
639.374	53711.06
639.718	53379.08
640.063	52915.88
640.407	52856.01
640.751	52749.9
641.096	52182.35
641.44	52140.09
641.784	52000.7
642.129	52032.25
642.473	51975.74
642.817	52041.1
643.161	52034.2
643.505	51939.6
643.849	51583.58
644.193	51415.73
644.537	51519.23
644.881	51253.26
645.224	51226.66
645.568	50675.75
645.912	50407.87
646.256	50043.28
646.599	49423.29
646.943	49076.55
647.286	48965.78
647.63	48064.89
647.973	47873.59
648.316	47535.95
648.66	47620.33
649.003	47592.09
649.346	47279.17
649.689	46732.16
650.033	46353.77
650.376	46596.01
650.719	47930.37
651.062	47996.63
651.405	48404.18
651.747	47229.03
652.09	46800.2
652.433	46580.43
652.776	47071.53
653.119	47119.46
653.461	47390.02
653.804	47517.66
654.146	47366.71
654.489	46978.53
654.831	46471.3
655.174	46108.76
655.516	45663.81
655.858	44481.58
656.201	42191.52
656.543	40149.47
656.885	38961.8
657.227	39926.07
657.569	41703.79
657.911	43369.83
658.253	44535.3
658.595	45321.96
658.937	45573.24
659.279	45645.94
659.621	45374.54
659.962	45258.35
660.304	45774.95
660.646	46171.96
660.987	46110.1
661.329	46276.53
661.67	46116.5
662.012	46519.72
662.353	46509.67
662.695	46419.42
663.036	46405.83
663.377	45796.14
663.718	45243.39
664.06	45723.08
664.401	45449.47
664.742	45151.88
665.083	45450.12
665.424	45713.16
665.765	45701.32
666.106	45574.99
666.446	45369.77
666.787	44825.45
667.128	45101.21
667.469	45021.46
667.809	44901.42
668.15	44597.39
668.49	45025.84
668.831	44637.34
669.171	45162.83
669.512	45037.27
669.852	44995.66
670.192	44330.2
670.533	44247.14
670.873	44512.35
671.213	44475.08
671.553	44264.52
671.893	43780.36
672.233	43910.56
672.573	43715.15
672.913	43829.53
673.253	43571.64
673.593	44002.49
673.933	43742.54
674.272	43864.48
674.612	43789.85
674.952	43771.57
675.291	43502.07
675.631	43602.94
675.97	43421.81
676.31	43502.4
676.649	43347.69
676.988	43284.06
677.328	42981.37
677.667	42845.79
678.006	43026.16
678.345	42865.36
678.684	42917.27
679.023	42955.97
679.362	42537.59
679.701	42764.04
680.04	42468.22
680.379	42229.33
680.718	42398.53
681.057	42031.32
681.395	42038.53
681.734	42079.19
682.073	42071.5
682.411	41944.99
682.75	41875.71
683.088	41599.07
683.427	41621.75
683.765	41251.66
684.103	40996.37
684.442	40622.92
684.78	40406.99
685.118	40528.75
685.456	40531.27
685.794	40405.24
686.132	40159.39
686.47	39555.17
686.808	37293.41
687.146	33422.91
687.484	29495.33
687.822	28275.2
688.159	29329.05
688.497	31150.44
688.835	32439.19
689.172	32804.94
689.51	32390.94
689.847	32362.84
690.185	32460.37
690.522	32979.81
690.86	33409.43
691.197	33836.41
691.534	34203.57
691.871	34587.66
692.209	34854.45
692.546	34921.97
692.883	34761.12
693.22	34119.26
693.557	33795.75
693.894	33655.89
694.23	32991.53
694.567	32876.98
694.904	32696.66
695.241	32956.73
695.577	33106.61
695.914	33275.47
696.251	33263.95
696.587	33754.98
696.924	34308.72
697.26	34784.7
697.596	35025.06
697.933	34751.64
698.269	34266.12
698.605	33893.94
698.942	33521.74
699.278	32900.72
699.614	32666.72
699.95	32250.15
700.286	32146.37
700.622	31736.22
700.958	31523
701.293	31403.95
701.629	31346.11
701.965	31168.31
702.301	31076.26
702.636	31007.69
702.972	30677.2
703.308	31118.14
703.643	31529.61
703.978	31466.86
704.314	31512.47
704.649	31517.11
704.985	31651.18
705.32	31512.46
705.655	31289.81
705.99	30945.85
706.325	30832.28
706.66	30904.72
706.995	30848.66
707.33	30849.09
707.665	30990.92
708	30820.06
708.335	30842.73
708.67	30676.97
709.004	30349.77
709.339	30240.03
709.674	30265.68
710.008	30268.89
710.343	30147.44
710.677	30292.74
711.012	29955.83
711.346	29937.73
711.68	29793.98
712.015	29678.57
712.349	29496.28
712.683	29417.11
713.017	29100.99
713.351	29160.7
713.685	28856.72
714.019	28819.67
714.353	28816.28
714.687	28410.59
715.021	28097.85
715.355	27802.18
715.689	27695.55
716.022	27500.38
716.356	27221.03
716.69	25945.96
717.023	24619.31
717.357	22656.9
717.69	21516.95
718.023	20771.56
718.357	20500.2
718.69	19787
719.023	19539.93
719.357	19047.4
719.69	19078.84
720.023	18842.85
720.356	18760.99
720.689	18905.63
721.022	19712.32
721.355	21261.35
721.688	22635.92
722.02	23674.39
722.353	23842.89
722.686	23975.74
723.019	23781.49
723.351	22628.03
723.684	21399.75
724.016	20545.51
724.349	20128.79
724.681	20037.65
725.013	20189.22
725.346	19871.33
725.678	19890.61
726.01	19990.25
726.342	20142.96
726.675	20055.29
727.007	20400.27
727.339	20620.76
727.671	20044.16
728.003	19415.29
728.334	19492.34
728.666	20381.06
728.998	20302.32
729.33	19705.33
729.661	19607.98
729.993	19821.04
730.325	20218
730.656	19986.9
730.988	19803.19
731.319	19910.41
731.65	19815.23
731.982	20050.89
732.313	20716.82
732.644	21289.61
732.975	21817.13
733.307	21775.27
733.638	21981.69
733.969	22322.92
734.3	22787.47
734.631	22932.5
734.961	22675.56
735.292	22388.54
735.623	22374.99
735.954	22198.77
736.284	21937.72
736.615	21996.72
736.946	21766.87
737.276	22040.13
737.607	22071.93
737.937	22404.23
738.268	22405.46
738.598	22274.89
738.928	21868.26
739.258	21789.75
739.589	21752.57
739.919	22036.23
740.249	22028.36
740.579	22321.33
740.909	22175.28
741.239	21951.14
741.569	21914.97
741.899	21954.53
742.228	21953.18
742.558	22035.47
742.888	21923.53
743.217	22207.04
743.547	22226.04
743.877	22414.36
744.206	22230.3
744.535	22107.49
744.865	21759.82
745.194	21967.34
745.523	21936.78
745.853	22058.97
746.182	22048.4
746.511	21897.38
746.84	21835.03
747.169	21762.23
747.498	21769.27
747.827	21730.22
748.156	21710.71
748.485	21664.23
748.814	21484.8
749.142	21422.47
749.471	21316.33
749.8	21037.46
750.128	21159.47
750.457	21160.75
750.785	21056.99
751.114	20892.38
751.442	20747.12
751.771	20751.63
752.099	20802.98
752.427	20785.44
752.755	20690.71
753.083	20609.61
753.412	20538.52
753.74	20480.55
754.068	20603.29
754.396	20544.22
754.723	20434.44
755.051	20338.85
755.379	20308.6
755.707	20144.85
756.035	20041.64
756.362	19927.64
756.69	20009.58
757.017	19913.84
757.345	19838.43
757.672	19687.37
758	19688.18
758.327	19544.79
758.654	19357.27
758.982	19185.56
759.309	18212.08
759.636	15489.03
759.963	11786.24
760.29	8162.38
760.617	6017.15
760.944	4972.22
761.271	4954.43
761.598	6024.72
761.924	8226.15
762.251	9831.67
762.578	10055.1
762.905	9064.31
763.231	8302.44
763.558	8010.74
763.884	8173.39
764.211	8549.31
764.537	9129.79
764.863	9866.79
765.19	10647.44
765.516	11366.51
765.842	12140.18
766.168	12702.17
766.494	13434.23
766.82	14085.19
767.146	14665.44
767.472	15446
767.798	15788.1
768.124	16244.72
768.45	16423.07
768.776	16670.95
769.101	16583.77
769.427	16722.79
769.752	16717.27
770.078	16815.57
770.404	16810.83
770.729	16980.06
771.054	16928.56
771.38	16848.36
771.705	16646.47
772.03	16828.89
772.355	16670.64
772.681	16668.2
773.006	16645
773.331	16495.87
773.656	16539.71
773.981	16479.82
774.305	16452.67
774.63	16313.55
774.955	16152.64
775.28	15926.1
775.604	15950.81
775.929	16066.27
776.254	15915.79
776.578	15988.21
776.903	16015.06
777.227	15797.65
777.551	15663.88
777.876	15510.2
778.2	15456.04
778.524	15386.22
778.849	15304.78
779.173	15368.5
779.497	15262.58
779.821	15157.92
780.145	14943.56
780.469	14875.35
780.793	14740.02
781.116	14752.97
781.44	14596.88
781.764	14533.56
782.087	14523.38
782.411	14540.38
782.735	14481.63
783.058	14375.73
783.382	14203.8
783.705	14051.42
784.028	13989.68
784.352	14010.42
784.675	13974.82
784.998	13960.89
785.321	13902.85
785.645	13854.47
785.968	13915.46
786.291	13831.36
786.614	13758.17
786.936	13656.28
787.259	13622.81
787.582	13580.45
787.905	13451.37
788.228	13448.16
788.55	13370.56
788.873	13344.7
789.195	13317.17
789.518	13097.78
789.84	13004.38
790.163	12912.05
790.485	13046.59
790.807	13050.17
791.13	13111.3
791.452	13031.78
791.774	12967.87
792.096	12943.07
792.418	12919.28
792.74	12982.33
793.062	12856.69
793.384	12880.47
793.706	12912.44
794.028	13019.52
794.349	13083.92
794.671	12968.3
794.993	12910.15
795.314	12968.01
795.636	13067.81
795.957	12919.78
796.279	12663.87
796.6	12498.8
796.921	12560.04
797.243	12763.07
797.564	12779.88
797.885	12985.55
798.206	12943.19
798.527	12883.88
798.848	12815.19
799.169	12788.04
799.49	12789.67
799.811	12610.65
800.132	12489.49
800.453	12303.84
800.774	12318.24
801.094	12256.27
801.415	12305.07
801.735	12306.86
802.056	12282.27
802.376	12338.38
802.697	12106.33
803.017	12038.89
803.337	12054.2
803.658	12013.09
803.978	12126.88
804.298	12044.6
804.618	11961.19
804.938	11891.1
805.258	11919.21
805.578	12091.99
805.898	12138.4
806.218	12157.46
806.538	12068.35
806.858	12052.08
807.177	11922.25
807.497	11829.1
807.816	11845.13
808.136	11885.46
808.455	11691.74
808.775	11550.74
809.094	11465.84
809.414	11521.18
809.733	11275.4
810.052	11216.13
810.371	11159.54
810.691	11209.47
811.01	11125.83
811.329	10927.23
811.648	10848.55
811.967	10816.57
812.285	10548.11
812.604	10564.91
812.923	10315.61
813.242	10110.17
813.56	9638.93
813.879	9410.87
814.198	9276.3
814.516	9243.26
814.835	8934.34
815.153	8739.8
815.471	8590.73
815.79	8675.94
816.108	8583.06
816.426	8249.35
816.744	8146.95
817.062	8175.22
817.381	8561.68
817.699	8437.69
818.016	8349.99
818.334	8099.93
818.652	8413.13
818.97	8585.08
819.288	8558.1
819.605	8554.56
819.923	8398.76
820.241	8580.3
820.558	8957.08
820.876	9480.39
821.193	9543.78
821.511	9428.73
821.828	9252.43
822.145	9089.7
822.462	8619.62
822.78	7852.06
823.097	7120.13
823.414	6957.32
823.731	7556.92
824.048	8271.1
824.365	8656.06
824.682	8957.56
824.998	9158.95
825.315	9293.57
825.632	9102.87
825.949	8904.95
826.265	8760.53
826.582	8982.07
826.898	9104.02
827.215	9032.51
827.531	8706.68
827.847	8314.56
828.164	8150.11
828.48	8275.84
828.796	8313.79
829.112	8397.9
829.428	8255.98
829.744	8418.56
830.06	8431.11
830.376	8456.96
830.692	8487.38
831.008	8480.68
831.324	8544.51
831.64	8467.67
831.955	8283.21
832.271	8298.27
832.587	8382.03
832.902	8474.53
833.218	8409.07
833.533	8356.47
833.848	8259.51
834.164	8395.3
834.479	8562
834.794	8635.7
835.109	8750.22
835.424	8744.88
835.739	8682.35
836.054	8652.64
836.369	8666.52
836.684	8705.83
836.999	8714.98
837.314	8765.54
837.629	8730
837.943	8663.69
838.258	8701.43
838.573	8699.27
838.887	8680.04
839.202	8722.44
839.516	8797.91
839.831	8839.76
840.145	8811.37
840.459	8794.39
840.773	8720.68
841.088	8671.15
841.402	8681.01
841.716	8661.76
842.03	8643.51
842.344	8652.57
842.658	8710.55
842.972	8686.8
843.285	8662.72
843.599	8609.03
843.913	8570.08
844.226	8524.3
844.54	8514.45
844.854	8539.51
845.167	8595.12
845.481	8627.13
845.794	8599.67
846.107	8639.01
846.421	8577.27
846.734	8569.1
847.047	8526.25
847.36	8494.34
847.673	8499.62
847.986	8506.59
848.299	8494.01
848.612	8420.6
848.925	8423.94
849.238	8389.86
849.551	8192.92
849.863	7900.02
850.176	7775.6
850.489	7847.91
850.801	8068.55
851.114	8152.17
851.426	8157.78
851.739	8124.28
852.051	8116.76
852.363	8148.35
852.675	8163.39
852.988	8142.44
853.3	8124.05
853.612	7953.29
853.924	7617.23
854.236	7106.03
854.548	6908.65
854.86	7064.97
855.172	7489.9
855.483	7724.52
855.795	7837.74
856.107	7887.69
856.418	7935.39
856.73	8015.59
857.041	8020.1
857.353	8017.05
857.664	7956.4
857.976	7965.24
858.287	7946.52
858.598	7931.79
858.909	7905.24
859.221	7870.42
859.532	7838.77
859.843	7814.71
860.154	7815.14
860.465	7820.1
860.775	7833.26
861.086	7778.22
861.397	7780.56
861.708	7732.12
862.018	7758.85
862.329	7780.1
862.64	7761.34
862.95	7764.64
863.261	7777.03
863.571	7696.4
863.881	7696.71
864.192	7720.06
864.502	7647.74
864.812	7598.29
865.122	7566.49
865.432	7502.8
865.742	7406.03
866.052	7095.27
866.362	6747.77
866.672	6647.14
866.982	6906.61
867.292	7178.32
867.602	7303.19
867.911	7315.49
868.221	7371.07
868.53	7372.26
868.84	7325.87
869.149	7290.36
869.459	7267.93
869.768	7309.2
870.078	7327.56
870.387	7314.15
870.696	7349.55
871.005	7292.52
871.314	7244.61
871.623	7188.5
871.932	7196.96
872.241	7167.08
872.55	7220.61
872.859	7180
873.168	7139.24
873.476	7096.52
873.785	7053.22
874.094	7030.25
874.402	7026.13
874.711	7030.59
875.019	7037.84
875.328	6984.59
875.636	6926.52
875.944	6949.37
876.253	6907.99
876.561	6960.85
876.869	6936.16
877.177	6875.57
877.485	6863.42
877.793	6855.36
878.101	6854.2
878.409	6808.34
878.717	6828.43
879.024	6761.71
879.332	6699.94
879.64	6701.72
879.947	6708.12
880.255	6694.15
880.563	6600.69
880.87	6486.15
881.177	6434.16
881.485	6504.43
881.792	6530.14
882.099	6542.04
882.406	6474.2
882.714	6463.45
883.021	6451.78
883.328	6451.42
883.635	6427.91
883.942	6357.92
884.249	6325.47
884.555	6327.82
884.862	6327.61
885.169	6282.71
885.475	6271.15
885.782	6217.23
886.089	6171.96
886.395	6103.7
886.702	6059.17
887.008	6067.23
887.314	6101.13
887.621	6103.82
887.927	6078.81
888.233	6049.4
888.539	6059.77
888.845	6088.87
889.151	6101.99
889.457	6116.85
889.763	6048.17
890.069	6046.1
890.375	6046.87
890.681	6037.6
890.986	6038.78
891.292	6026.42
891.598	6004.34
891.903	5962.11
892.209	5943.12
892.514	5910.77
892.819	5832.61
893.125	5737.05
893.43	5680.5
893.735	5731.17
894.04	5742.5
894.346	5693.85
894.651	5557.99
894.956	5486.41
895.261	5361.53
895.565	5293.84
895.87	5301.9
896.175	5246.27
896.48	5123.36
896.785	5017.67
897.089	4959.67
897.394	4983.71
897.698	4998.5
898.003	5061.5
898.307	5194.41
898.612	5003.67
898.916	4676.05
899.22	4408.03
899.524	4598.56
899.829	4907.45
900.133	5010.42
900.437	4848.48
900.741	4721.64
901.045	4743.64
901.348	4777.18
901.652	4802.32
901.956	4859.26
902.26	4833
902.564	4840.02
902.867	4863.87
903.171	4996.84
903.474	5254.28
903.778	5437.11
904.081	5489.92
904.384	5439.39
904.688	5416.43
904.991	5443.92
905.294	5407.95
905.597	5410.87
905.9	5354.93
906.203	5220.74
906.506	5071.27
906.809	4946.85
907.112	4836.88
907.415	4747.94
907.718	4744.07
908.021	4710.13
908.323	4731.39
908.626	4644.2
908.928	4679.88
909.231	4638.33
909.533	4656.53
909.836	4642.6
910.138	4658.4
910.44	4646.6
910.742	4590.58
911.045	4681.3
911.347	4782.37
911.649	4846.18
911.951	4736.69
912.253	4721.28
912.555	4784.53
912.857	4726
913.158	4484.05
913.46	4271.03
913.762	4223.58
914.063	4384.84
914.365	4565.98
914.667	4725.94
914.968	4645.83
915.269	4448.22
915.571	4232.92
915.872	4200.8
916.173	4356.47
916.475	4543.67
916.776	4609.08
917.077	4555.04
917.378	4346.04
917.679	4195.76
917.98	4215.27
918.281	4337.46
918.582	4464.45
918.882	4548.56
919.183	4621.12
919.484	4622.43
919.784	4596.76
920.085	4680.97
920.385	4765.88
920.686	4773.33
920.986	4687.72
921.287	4592.87
921.587	4510.82
921.887	4487.61
922.187	4517.3
922.487	4581.22
922.787	4568.28
923.087	4486.07
923.387	4455.16
923.687	4377.76
923.987	4322.8
924.287	4299.31
924.587	4278.76
924.886	4304.47
925.186	4297.53
925.486	4322.42
925.785	4308.93
926.085	4274.39
926.384	4266.15
926.683	4292.64
926.983	4336.46
927.282	4294.02
927.581	4183.94
927.88	4042.43
928.18	3915.76
928.479	3826.11
928.778	3762.34
929.076	3746.3
929.375	3701.8
929.674	3659.76
929.973	3572.68
930.272	3504.35
930.57	3489.93
930.869	3449.33
931.168	3404.72
931.466	3349.97
931.764	3272.8
932.063	3209.84
932.361	3137.19
932.66	3107.73
932.958	3103.84
933.256	3093.16
933.554	3066.23
933.852	3005.89
934.15	2957.64
934.448	2948.09
934.746	2975.7
935.044	3054.8
935.342	3100.61
935.639	3082.71
935.937	3028.37
936.235	3022.75
936.532	3047.84
936.83	3038.79
937.127	3004.52
937.425	2983.63
937.722	2993.31
938.019	2991.42
938.317	2996.43
938.614	3029.88
938.911	3109.43
939.208	3221.53
939.505	3313.5
939.802	3362.77
940.099	3334.62
940.396	3269.56
940.693	3211.82
940.989	3184.76
941.286	3166
941.583	3162.49
941.879	3174.31
942.176	3185.48
942.472	3178.89
942.769	3142.52
943.065	3087.29
943.362	3072.78
943.658	3106.14
943.954	3113.96
944.25	3062.38
944.546	3000.08
944.842	3012.27
945.138	3074.63
945.434	3113.45
945.73	3095.8
946.026	3046.79
946.322	3015.53
946.618	3020.24
946.913	3041.16
947.209	3053.6
947.504	3073.98
947.8	3080.32
948.095	3075.92
948.391	3052.29
948.686	3051.86
948.981	3081.68
949.277	3121.76
949.572	3117.75
949.867	3054.06
950.162	2988.21
950.457	2970.42
950.752	3016.17
951.047	3090.62
951.342	3147.15
951.637	3146.92
951.931	3093.7
952.226	3026.14
952.521	2972.62
952.815	2957.68
953.11	2978.78
953.404	3017.27
953.699	3053.04
953.993	3078.01
954.287	3078.92
954.582	3057.6
954.876	3029.48
955.17	3020.37
955.464	3024.39
955.758	3021.43
956.052	3013.42
956.346	3016.57
956.64	3023.38
956.934	3017.68
957.227	3006.52
957.521	3023.18
957.815	3060.55
958.108	3094.85
958.402	3093.25
958.695	3067.4
958.989	3042.59
959.282	3015.71
959.575	2989.02
959.869	2970.23
960.162	2978.18
960.455	3000.99
960.748	3021.58
961.041	3027.64
961.334	3029.5
961.627	3040.7
961.92	3053.52
962.213	3054.96
962.505	3038
962.798	3011.77
963.091	3002.88
963.383	3018.31
963.676	3047.05
963.968	3064.65
964.261	3051.41
964.553	3038.49
964.846	3022.69
965.138	3024.14
965.43	3030.51
965.722	3032.05
966.014	3033.93
966.306	3031.83
966.598	3021.44
966.89	3005.03
967.182	2994.53
967.474	3005.87
967.766	3034.2
968.058	3062.87
968.349	3081.87
968.641	3085.22
968.932	3075.13
969.224	3073.24
969.515	3080.08
969.807	3081.97
970.098	3083.26
970.389	3074.99
970.681	3065.95
970.972	3065.46
971.263	3060.68
971.554	3063.02
971.845	3069.41
972.136	3064.28
972.427	3053.42
972.718	3048.99
973.008	3041.95
973.299	3028.93
973.59	3028.74
973.88	3016.49
974.171	3006.6
974.461	2994.46
974.752	2984.42
975.042	2979.17
975.333	2980.17
975.623	2983.89
975.913	2982.87
976.203	2976.45
976.493	2967.83
976.783	2963.98
977.073	2955.13
977.363	2956.77
977.653	2966.23
977.943	2972.31
978.233	2977.03
978.523	2977.77
978.812	2966.81
979.102	2963.97
979.391	2955.4
979.681	2957.64
979.97	2953.95
980.26	2946.97
980.549	2943.34
980.838	2942.24
981.128	2945.49
981.417	2942.91
981.706	2945.98
981.995	2950.15
982.284	2950.99
982.573	2948.67
982.862	2942.79
983.151	2941.44
983.44	2934.81
983.728	2932.43
984.017	2933.35
984.306	2932.64
984.594	2933.66
984.883	2931.66
985.171	2934.26
985.459	2928.54
985.748	2922.74
986.036	2921.03
986.324	2919.44
986.612	2919.03
986.901	2919.38
987.189	2918.98
987.477	2918.74
987.765	2916.22
988.052	2915.13
988.34	2908.15
988.628	2903
988.916	2904.71
989.204	2903.37
989.491	2902.14
989.779	2901.38
990.066	2899.26
990.354	2898.35
990.641	2895.1
990.928	2894.71
991.216	2891.8
991.503	2886.9
991.79	2888.18
992.077	2883.88
992.364	2883.38
992.651	2882.01
992.938	2880.09
993.225	2877.4
993.512	2877.03
993.799	2871.85
994.085	2873.95
994.372	2870.74
994.659	2869.44
994.945	2867.02
995.232	2865.84
995.518	2861.85
995.805	2861.05
996.091	2863.95
996.377	2860.25
996.663	2859.04
996.95	2857.58
997.236	2850.64
997.522	2852
997.808	2849.29
998.094	2847.61
998.379	2850.61
998.665	2847.8
998.951	2848.13
999.237	2846.72
999.522	2845.32
999.808	2845.54
1000.094	2843.79
1000.379	2842.26
1000.665	2841.31
1000.95	2835.91
1001.235	2837.44
1001.521	2836.6
1001.806	2834.6
1002.091	2833.78
1002.376	2833.44
1002.661	2833.21
1002.946	2830.15
1003.231	2829.94
1003.516	2829.47
1003.801	2828.91
1004.085	2825.62
1004.37	2825.28
1004.655	2825.57
1004.939	2822.76
1005.224	2822.97
1005.508	2819.29
1005.793	2819.92
1006.077	2817.63
1006.361	2819.93
1006.646	2819.42
1006.93	2818.24
1007.214	2818.11
1007.498	2816.09
1007.782	2817.07
1008.066	2813.41
1008.35	2814.17
1008.634	2815.5
1008.918	2812.84
1009.202	2814.43
1009.485	2811.84
1009.769	2811.15
1010.052	2810.72
1010.336	2810.18
1010.619	2808.89
1010.903	2810.4
1011.186	2810.03
1011.47	2804.8
1011.753	2805.35
1012.036	2805.67
1012.319	2802.94
1012.602	2807.08
1012.885	2806.75
1013.168	2803.97
1013.451	2805.09
1013.734	2806.06
1014.017	2803.68
1014.299	2802.52
1014.582	2802.83
1014.865	2803.6
1015.147	2800.41
1015.43	2801.28
1015.712	2802.56
1015.995	2802.44
1016.277	2797.78
1016.559	2800.79
1016.842	2801.35
1017.124	2799.29
1017.406	2801.67
1017.688	2798.9
1017.97	2798.4
1018.252	2800.91
1018.534	2799.49
1018.816	2796.06
1019.097	2796.39
1019.379	2797.95
1019.661	2797.61
1019.942	2796.8
1020.224	2795.84
1020.505	2798.14
1020.787	2794.66
1021.068	2795.44
1021.349	2793.79
1021.631	2793.94
1021.912	2791.73
1022.193	2794.28
1022.474	2794.28
1022.755	2794.28
